#   Frequency (THz)          T(omega), 2x2x2          T(omega), 4x4x4      
0.000000000000000000e+00 5.091075553620516073e-11 2.738840480941656760e-13
5.999999999999999778e-02 1.775462413269699090e-10 1.125095656569695854e-12
1.199999999999999956e-01 4.757731782670920846e-10 3.534501271328885062e-12
1.799999999999999933e-01 1.002745978605862720e-09 8.705605036106087236e-12
2.399999999999999911e-01 1.742491808110614476e-09 1.740278877978661401e-11
2.999999999999999889e-01 2.687054381052887401e-09 2.982983057142035516e-11
3.599999999999999867e-01 3.972083192971445492e-09 4.757159780872853434e-11
4.199999999999999845e-01 5.820114270339219192e-09 7.571508685158014483e-11
4.799999999999999822e-01 8.321187617324089363e-09 1.201662976867999315e-10
5.400000000000000355e-01 1.147040793244907663e-08 1.833980548304101930e-10
5.999999999999999778e-01 1.550050804728531282e-08 2.687580280698152167e-10
6.599999999999999201e-01 2.080680160589716440e-08 3.864558464896399690e-10
7.199999999999999734e-01 2.747457517285309673e-08 5.497804077699978974e-10
7.800000000000000266e-01 3.550731756762515361e-08 7.713587247540983518e-10
8.399999999999999689e-01 4.543795447035670560e-08 1.064079896416972133e-09
8.999999999999999112e-01 5.789711000188122797e-08 1.443789261532699136e-09
9.599999999999999645e-01 7.296259105748243671e-08 1.933304851414657755e-09
1.020000000000000018e+00 9.077662848141782615e-08 2.558481909523093224e-09
1.080000000000000071e+00 1.121516663836092608e-07 3.349236192328468851e-09
1.139999999999999902e+00 1.378111864181525866e-07 4.344467697322313872e-09
1.199999999999999956e+00 1.678777687259956928e-07 5.572562946922767504e-09
1.260000000000000009e+00 2.028829222674192195e-07 7.065418981399406577e-09
1.319999999999999840e+00 2.441029320553142859e-07 8.896330845920333110e-09
1.379999999999999893e+00 2.921432384695677630e-07 1.112170866432016982e-08
1.439999999999999947e+00 3.469393222889452630e-07 1.376307696427902775e-08
1.500000000000000000e+00 4.095838990103056391e-07 1.690179588832240098e-08
1.560000000000000053e+00 4.817768321095402193e-07 2.064178391110687114e-08
1.619999999999999885e+00 5.637180589969017335e-07 2.502278692552237163e-08
1.679999999999999938e+00 6.553334538235760751e-07 3.009649571067664631e-08
1.739999999999999991e+00 7.581812717630851349e-07 3.600023852813916542e-08
1.799999999999999822e+00 8.733897802149404968e-07 4.286063124778367364e-08
1.859999999999999876e+00 1.000332572903969414e-06 5.068465955225927516e-08
1.919999999999999929e+00 1.139335365187240767e-06 5.954614693761858423e-08
1.979999999999999982e+00 1.291847410865550244e-06 6.970940279208329431e-08
2.040000000000000036e+00 1.457092359862872795e-06 8.124591227409133529e-08
2.100000000000000089e+00 1.633320977190347428e-06 9.409091053473614439e-08
2.160000000000000142e+00 1.821156625337452973e-06 1.085483102846064715e-07
2.219999999999999751e+00 2.020552125296959643e-06 1.248649645386049861e-07
2.279999999999999805e+00 2.228302925221852154e-06 1.429382308090755676e-07
2.339999999999999858e+00 2.442627488229522102e-06 1.630269426062648074e-07
2.399999999999999911e+00 2.663817827898891049e-06 1.858013905690867577e-07
2.459999999999999964e+00 2.889965417005064921e-06 2.122899989321785485e-07
2.520000000000000018e+00 3.121115214115425592e-06 2.456074828357434390e-07
2.580000000000000071e+00 3.365306172169469416e-06 2.932772158725448371e-07
2.639999999999999680e+00 3.634858767657553959e-06 3.674090392497057766e-07
2.699999999999999734e+00 3.944336484278303129e-06 4.823430658453577982e-07
2.759999999999999787e+00 4.312785027820345931e-06 6.517375582449326202e-07
2.819999999999999840e+00 4.756999403874458178e-06 8.864268438547120024e-07
2.879999999999999893e+00 5.285580461955416752e-06 1.193951905577085078e-06
2.939999999999999947e+00 5.905337293882099786e-06 1.579466354084491752e-06
3.000000000000000000e+00 6.623317551222251707e-06 2.045782710960319080e-06
3.060000000000000053e+00 7.441483899948118669e-06 2.593820579680888127e-06
3.120000000000000107e+00 8.361308564683835994e-06 3.224796066763655201e-06
3.179999999999999716e+00 9.388477925799381681e-06 3.940441407485141046e-06
3.239999999999999769e+00 1.052656085695949820e-05 4.741721510482462505e-06
3.299999999999999822e+00 1.177957309176309511e-05 5.629781189799017325e-06
3.359999999999999876e+00 1.315828427031491561e-05 6.607942617903912679e-06
3.419999999999999929e+00 1.466376737067556480e-05 7.681389165455377861e-06
3.479999999999999982e+00 1.626920741413404129e-05 8.855711021949599145e-06
3.540000000000000036e+00 1.793312388427239406e-05 1.013682452721354358e-05
3.599999999999999645e+00 1.963596502517588320e-05 1.152725796084720036e-05
3.659999999999999698e+00 2.140760577869130533e-05 1.302125760876918185e-05
3.719999999999999751e+00 2.330956288373966953e-05 1.460840671782985373e-05
3.779999999999999805e+00 2.538320082616883627e-05 1.628101876950953210e-05
3.839999999999999858e+00 2.762868619574746111e-05 1.803432100953109786e-05
3.899999999999999911e+00 3.003111206248249395e-05 1.986331472378391564e-05
3.959999999999999964e+00 3.258383867106349427e-05 2.176719596239662244e-05
4.019999999999999574e+00 3.528121894848898108e-05 2.374819795140310275e-05
4.080000000000000071e+00 3.811235593693409161e-05 2.580206781058602542e-05
4.139999999999999680e+00 4.107757936284783069e-05 2.792719503716602241e-05
4.200000000000000178e+00 4.418208131469860463e-05 3.012825674996455087e-05
4.259999999999999787e+00 4.741483426934351266e-05 3.240167303505913206e-05
4.320000000000000284e+00 5.077280794294608806e-05 3.474442391178411173e-05
4.379999999999999893e+00 5.426832909927723804e-05 3.716088626853049164e-05
4.439999999999999503e+00 5.789306900116899179e-05 3.965072652972968299e-05
4.500000000000000000e+00 6.163635668958938147e-05 4.221102309008570373e-05
4.559999999999999609e+00 6.551156261005969912e-05 4.484213251029205448e-05
4.620000000000000107e+00 6.951947442943043017e-05 4.754758844455075380e-05
4.679999999999999716e+00 7.364492146624152804e-05 5.032799361726854922e-05
4.740000000000000213e+00 7.789309281717191145e-05 5.317822176017081217e-05
4.799999999999999822e+00 8.227416107210575903e-05 5.610200363836631370e-05
4.859999999999999432e+00 8.677510566628822788e-05 5.910695371524402595e-05
4.919999999999999929e+00 9.139041522292688736e-05 6.218538240971844926e-05
4.979999999999999538e+00 9.613556140048993876e-05 6.533543094041449433e-05
5.040000000000000036e+00 1.010026891323643117e-04 6.857168844344398075e-05
5.099999999999999645e+00 1.059750446672735294e-04 7.188959832915079438e-05
5.160000000000000142e+00 1.110684306184686864e-04 7.527931624685309524e-05
5.219999999999999751e+00 1.162884838947573346e-04 7.875738543901211958e-05
5.279999999999999361e+00 1.216084516128049242e-04 8.232617348063771669e-05
5.339999999999999858e+00 1.270274786213175077e-04 8.597168366961283222e-05
5.399999999999999467e+00 1.325671861575240405e-04 8.970586392583336077e-05
5.459999999999999964e+00 1.382126647097641707e-04 9.353643148046827808e-05
5.519999999999999574e+00 1.439367369651706641e-04 9.745178549421383454e-05
5.580000000000000071e+00 1.497505709930078478e-04 1.014572665170471616e-04
5.639999999999999680e+00 1.556636118634121537e-04 1.055599597536988749e-04
5.700000000000000178e+00 1.616468847213548151e-04 1.097511431115889315e-04
5.759999999999999787e+00 1.676874794092821520e-04 1.140288550908203757e-04
5.819999999999999396e+00 1.737946147601289351e-04 1.183870491903753143e-04
5.879999999999999893e+00 1.799469963930267358e-04 1.227993259473583927e-04
5.939999999999999503e+00 1.861238717410364056e-04 1.272346763972246838e-04
6.000000000000000000e+00 1.923321233685250050e-04 1.316540839708179938e-04
6.059999999999999609e+00 1.985641647050074231e-04 1.360784186285901066e-04
6.120000000000000107e+00 2.048599901435782641e-04 1.408433666297228984e-04
6.179999999999999716e+00 2.115102723452351625e-04 1.469084216012166762e-04
6.240000000000000213e+00 2.192211475826655917e-04 1.559680101737346116e-04
6.299999999999999822e+00 2.289207564708661423e-04 1.699686584525784278e-04
6.359999999999999432e+00 2.409054762442576784e-04 1.895470412081786673e-04
6.419999999999999929e+00 2.538853843792450936e-04 2.119990055550043876e-04
6.479999999999999538e+00 2.653806039416172673e-04 2.314157461655678700e-04
6.540000000000000036e+00 2.734574780246678714e-04 2.425296640823035061e-04
6.599999999999999645e+00 2.776588607220858529e-04 2.445064323447984373e-04
6.660000000000000142e+00 2.786801208498241342e-04 2.403615425393104861e-04
6.719999999999999751e+00 2.783084516618944686e-04 2.340362167244072669e-04
6.779999999999999361e+00 2.791105636054521874e-04 2.287048942461079740e-04
6.839999999999999858e+00 2.830525170501943803e-04 2.262373090658882885e-04
6.899999999999999467e+00 2.906352379900126507e-04 2.271237283226863410e-04
6.959999999999999964e+00 3.014281620650943782e-04 2.309665435434316830e-04
7.019999999999999574e+00 3.148729291602425651e-04 2.372381856630800920e-04
7.080000000000000071e+00 3.306125268982320069e-04 2.457147973974318968e-04
7.139999999999999680e+00 3.485771775852834807e-04 2.564743603996449397e-04
7.199999999999999289e+00 3.690678119477105047e-04 2.699152400042414903e-04
7.259999999999999787e+00 3.927211582268368617e-04 2.866591959949571153e-04
7.319999999999999396e+00 4.199270318558176321e-04 3.066393466033416658e-04
7.379999999999999893e+00 4.494605145414452005e-04 3.278835898959904039e-04
7.439999999999999503e+00 4.776185762951258443e-04 3.467514804588876960e-04
7.500000000000000000e+00 5.000256646477167170e-04 3.602428214452179289e-04
7.559999999999999609e+00 5.150218816258822713e-04 3.681721691795171816e-04
7.620000000000000107e+00 5.245018759438969773e-04 3.727098867333190815e-04
7.679999999999999716e+00 5.315600258039061441e-04 3.761685135421142362e-04
7.739999999999999325e+00 5.382765394665329356e-04 3.797822553991578266e-04
7.799999999999999822e+00 5.453672258051184708e-04 3.839534470568266994e-04
7.859999999999999432e+00 5.528552383208012360e-04 3.886749347940625637e-04
7.919999999999999929e+00 5.606684791612119622e-04 3.937972460115182153e-04
7.979999999999999538e+00 5.688787146481009884e-04 3.991924811063629012e-04
8.039999999999999147e+00 5.776738659114182082e-04 4.048002664782835314e-04
8.099999999999999645e+00 5.871254283130829992e-04 4.107268792104152308e-04
8.160000000000000142e+00 5.971157512923753758e-04 4.172159819421939744e-04
8.219999999999998863e+00 6.075166105657469435e-04 4.244924938838251678e-04
8.279999999999999361e+00 6.182958807625373813e-04 4.327241091193400821e-04
8.339999999999999858e+00 6.295147686384577499e-04 4.420064998714109158e-04
8.400000000000000355e+00 6.412694071058249378e-04 4.523657173768052945e-04
8.459999999999999076e+00 6.536390600310475370e-04 4.638771017897771998e-04
8.519999999999999574e+00 6.667242124485214978e-04 4.767072861160514662e-04
8.580000000000000071e+00 6.806575844978974416e-04 4.910150510189512443e-04
8.640000000000000568e+00 6.955640732913248017e-04 5.069515611316673413e-04
8.699999999999999289e+00 7.116220876984800676e-04 5.247110893706272974e-04
8.759999999999999787e+00 7.291232204793272106e-04 5.442682548162142316e-04
8.820000000000000284e+00 7.484017153245913281e-04 5.650709274865127040e-04
8.879999999999999005e+00 7.697980257863446625e-04 5.864090673900998777e-04
8.939999999999999503e+00 7.935436114037161363e-04 6.081072589098868945e-04
9.000000000000000000e+00 8.196211579882793381e-04 6.307360658011475305e-04
9.060000000000000497e+00 8.481044872472350959e-04 6.554680847477231415e-04
9.119999999999999218e+00 8.796595294250643101e-04 6.837778730432447901e-04
9.179999999999999716e+00 9.153351250953432406e-04 7.167889532173569306e-04
9.240000000000000213e+00 9.556657573829461464e-04 7.544881943264587776e-04
9.299999999999998934e+00 1.000151424887128424e-03 7.957340446279305641e-04
9.359999999999999432e+00 1.047789840466326668e-03 8.393119080472490751e-04
9.419999999999999929e+00 1.097876846195537485e-03 8.845561082417995220e-04
9.480000000000000426e+00 1.150090288989884420e-03 9.309640853501935463e-04
9.539999999999999147e+00 1.203878308839283814e-03 9.781215878908863445e-04
9.599999999999999645e+00 1.258063009798978489e-03 1.025863464096127319e-03
9.660000000000000142e+00 1.311608348428576487e-03 1.073887352117668722e-03
9.719999999999998863e+00 1.364788605393554323e-03 1.121937158471760388e-03
9.779999999999999361e+00 1.419058365442245860e-03 1.170993572644793293e-03
9.839999999999999858e+00 1.475985262435076679e-03 1.223639995957354239e-03
9.900000000000000355e+00 1.536779419749924542e-03 1.282577361793124995e-03
9.959999999999999076e+00 1.602545460222136800e-03 1.348850068918274478e-03
1.001999999999999957e+01 1.674617839808679835e-03 1.421696989356141354e-03
1.008000000000000007e+01 1.754704751910840174e-03 1.499258511330626552e-03
1.013999999999999879e+01 1.844696958202056598e-03 1.578367942005242481e-03
1.019999999999999929e+01 1.946006787339834513e-03 1.654802167602789642e-03
1.025999999999999979e+01 2.058706788576093738e-03 1.726582221540087217e-03
1.032000000000000028e+01 2.181257656034147827e-03 1.797814580553083914e-03
1.037999999999999901e+01 2.310987204340661169e-03 1.876641514506848874e-03
1.043999999999999950e+01 2.444184331075438185e-03 1.967361020682689005e-03
1.050000000000000000e+01 2.575511536701886005e-03 2.064794328432356402e-03
1.055999999999999872e+01 2.699229704536980010e-03 2.156913578644352805e-03
1.061999999999999922e+01 2.813805528034762568e-03 2.234494438964753932e-03
1.067999999999999972e+01 2.925100479284503500e-03 2.298533709213751268e-03
1.074000000000000021e+01 3.042635883672853772e-03 2.356092313103265272e-03
1.079999999999999893e+01 3.171066944252689656e-03 2.410440772709065808e-03
1.085999999999999943e+01 3.301512985683810984e-03 2.459459867205563213e-03
1.091999999999999993e+01 3.410369161875413148e-03 2.502885099118348344e-03
1.098000000000000043e+01 3.477111287799612011e-03 2.547828346465803341e-03
1.103999999999999915e+01 3.510264402588114240e-03 2.607271625717977846e-03
1.109999999999999964e+01 3.548912244860702881e-03 2.694714701505610075e-03
1.116000000000000014e+01 3.637822388917325619e-03 2.821357232639428152e-03
1.121999999999999886e+01 3.810992261389921885e-03 2.999594593565250728e-03
1.127999999999999936e+01 4.100058316046796547e-03 3.249029226434657983e-03
1.133999999999999986e+01 4.541447896822160477e-03 3.599619414450660072e-03
1.140000000000000036e+01 5.132619323668011387e-03 4.081290307681436323e-03
1.145999999999999908e+01 5.730366641290562946e-03 4.665258658369586531e-03
1.151999999999999957e+01 6.029452744105864848e-03 5.171028045201270067e-03
1.158000000000000007e+01 5.785489694263171688e-03 5.309147536554585656e-03
1.163999999999999879e+01 5.092478808978010557e-03 4.948261517259265607e-03
1.169999999999999929e+01 4.307175322651901617e-03 4.287252052120846778e-03
1.175999999999999979e+01 3.700255727400099306e-03 3.653187445389211203e-03
1.182000000000000028e+01 3.305031450386081669e-03 3.216607140024975355e-03
1.187999999999999901e+01 3.046201749957787829e-03 2.967388518056880437e-03
1.193999999999999950e+01 2.871371827996425062e-03 2.844679619715704232e-03
1.200000000000000000e+01 2.768620705609389342e-03 2.808722988946490279e-03
1.205999999999999872e+01 2.741977641719002198e-03 2.833296737957982821e-03
1.211999999999999922e+01 2.793280355810589741e-03 2.881431887796270797e-03
1.217999999999999972e+01 2.905894272696526830e-03 2.902784879844016921e-03
1.224000000000000021e+01 3.034694303222788565e-03 2.859319410176842068e-03
1.229999999999999893e+01 3.119693656009905891e-03 2.754348771960957176e-03
1.235999999999999943e+01 3.118776500182285534e-03 2.628388829474821459e-03
1.241999999999999993e+01 3.032934674656457587e-03 2.522998850120834226e-03
1.248000000000000043e+01 2.900880458410893658e-03 2.452134108918938016e-03
1.253999999999999915e+01 2.765145053297968572e-03 2.404212931426515966e-03
1.259999999999999964e+01 2.644083374396848356e-03 2.361133237583825512e-03
1.266000000000000014e+01 2.535389411888988066e-03 2.311741776032672554e-03
1.271999999999999886e+01 2.435009433689815095e-03 2.253232431167853135e-03
1.277999999999999936e+01 2.347057039168174396e-03 2.187434142752849725e-03
1.283999999999999986e+01 2.279631048207375003e-03 2.118481593085734353e-03
1.290000000000000036e+01 2.234145704788082810e-03 2.052118726877296545e-03
1.295999999999999908e+01 2.201023107938560736e-03 1.993022781514031984e-03
1.301999999999999957e+01 2.167061024820945720e-03 1.942012228522186756e-03
1.308000000000000007e+01 2.125979926922779047e-03 1.897048764943414087e-03
1.313999999999999879e+01 2.080938203251332923e-03 1.855031684865654246e-03
1.319999999999999929e+01 2.037305353263033081e-03 1.814232076605979630e-03
1.325999999999999979e+01 1.995738160507183005e-03 1.776251865202685062e-03
1.332000000000000028e+01 1.953235866791847714e-03 1.743385016077018479e-03
1.337999999999999901e+01 1.907632464274464394e-03 1.716399638334701683e-03
1.343999999999999950e+01 1.859406388920348914e-03 1.694534161759712106e-03
1.350000000000000000e+01 1.810499401219797539e-03 1.675366958359799036e-03
1.355999999999999872e+01 1.762187157198903762e-03 1.657803843234535810e-03
1.361999999999999922e+01 1.714644361296660102e-03 1.642431045203727015e-03
1.367999999999999972e+01 1.668378528265624695e-03 1.626382170963485124e-03
1.374000000000000021e+01 1.624608222692968708e-03 1.605413560044957871e-03
1.379999999999999893e+01 1.584941913901821275e-03 1.580086195880786061e-03
1.385999999999999943e+01 1.551479652997166028e-03 1.553510472380432647e-03
1.391999999999999993e+01 1.524882392336713872e-03 1.528294305797010030e-03
1.397999999999999865e+01 1.502205872889591501e-03 1.507222423009875077e-03
1.403999999999999915e+01 1.479286541657952011e-03 1.491146402026290781e-03
1.409999999999999964e+01 1.454654086754841478e-03 1.478621579936559120e-03
1.416000000000000014e+01 1.429438532159450510e-03 1.468071394488554716e-03
1.421999999999999886e+01 1.404953087726231245e-03 1.455964148346541778e-03
1.427999999999999936e+01 1.380858633221523609e-03 1.438135328918907843e-03
1.433999999999999986e+01 1.354263648976302900e-03 1.415869515523077507e-03
1.439999999999999858e+01 1.322376144721489673e-03 1.393817375203158359e-03
1.445999999999999908e+01 1.287376713661693125e-03 1.373899737177909468e-03
1.451999999999999957e+01 1.255665301444914379e-03 1.356823543213415062e-03
1.458000000000000007e+01 1.231845828672049241e-03 1.343743619728803755e-03
1.463999999999999879e+01 1.215883649414135383e-03 1.334092506331239786e-03
1.469999999999999929e+01 1.204790956865706315e-03 1.327489729513376630e-03
1.475999999999999979e+01 1.195067839521837209e-03 1.325554317156444391e-03
1.482000000000000028e+01 1.184849669661921807e-03 1.328308354776034771e-03
1.487999999999999901e+01 1.174369356050495271e-03 1.333251231492433870e-03
1.493999999999999950e+01 1.164007443256829134e-03 1.337876700731678841e-03
1.500000000000000000e+01 1.153663379488531178e-03 1.339244439936818163e-03
1.505999999999999872e+01 1.144144959217711270e-03 1.334411181452897603e-03
1.511999999999999922e+01 1.136064397156214814e-03 1.323844615845945222e-03
1.517999999999999972e+01 1.127882698633951445e-03 1.311418704698232018e-03
1.524000000000000021e+01 1.118452364478564331e-03 1.301406533704915942e-03
1.529999999999999893e+01 1.109715345426716578e-03 1.296805050059920235e-03
1.535999999999999943e+01 1.104052263224384461e-03 1.297268137537510319e-03
1.541999999999999993e+01 1.101531159498251623e-03 1.298469256469736519e-03
1.547999999999999865e+01 1.100894706873497501e-03 1.296914326663553552e-03
1.553999999999999915e+01 1.100764605541301299e-03 1.293338889504989410e-03
1.559999999999999964e+01 1.100090882587795782e-03 1.289530582045972287e-03
1.566000000000000014e+01 1.098876679410502617e-03 1.286049866254196459e-03
1.571999999999999886e+01 1.098093755695745636e-03 1.283733123050823880e-03
1.577999999999999936e+01 1.099349491825716337e-03 1.283943076464469151e-03
1.583999999999999986e+01 1.105064949559725991e-03 1.287939248973877637e-03
