#   Frequency (THz)          T(omega), 2x2x2          T(omega), 3x3x3          T(omega), 4x4x4          T(omega), 5x5x5          T(omega), 6x6x6      
0.000000000000000000e+00 2.181786166818303600e-11 1.287654200827492009e-11 2.728221231606475631e-12 3.871248542526694241e-12 3.922845244697683088e-12
4.000000000000000083e-02 2.565063534565092343e-11 1.506766335440000264e-11 3.183569494517781376e-12 4.486869339051852894e-12 4.567055150935013538e-12
8.000000000000000167e-02 3.009334473350453528e-11 1.760660540010850244e-11 3.707318195098597594e-12 5.187962166440906215e-12 5.305779881468784999e-12
1.199999999999999956e-01 3.523179336839997395e-11 2.054335186286025651e-11 4.308477834490998648e-12 5.984303116815082618e-12 6.150899961272091530e-12
1.600000000000000033e-01 4.116201898419664226e-11 2.393416262617480304e-11 4.997055621844252259e-12 6.886464235389139024e-12 7.115475242493628336e-12
2.000000000000000111e-01 4.799124201831134259e-11 2.784221708536269133e-11 5.784140241080850498e-12 7.905832341227484438e-12 8.213816691898442372e-12
2.399999999999999911e-01 5.583886541788298136e-11 3.233830079384524926e-11 6.681990804804156292e-12 9.054621451992956858e-12 9.461556286278184162e-12
2.800000000000000266e-01 6.483752381944271667e-11 3.750153459461875096e-11 7.704129860716402034e-12 1.034587785517662906e-11 1.087571395103657663e-11
3.200000000000000067e-01 7.513417942701293243e-11 4.342014462126019917e-11 8.865440262682516096e-12 1.179347687804248193e-11 1.247476037605586441e-11
3.599999999999999867e-01 8.689126110174883197e-11 5.019227062971834616e-11 1.018226565839166321e-11 1.341211043942096313e-11 1.427867444658190102e-11
4.000000000000000222e-01 1.002878423026571322e-10 5.792680907192719316e-11 1.167251427755558900e-11 1.521726452058089775e-11 1.630899393739523020e-11
4.400000000000000022e-01 1.155208525844663364e-10 6.674428614338214266e-11 1.335576562780163049e-11 1.722518577138963331e-11 1.858885803825844152e-11
4.799999999999999822e-01 1.328063163678243393e-10 7.677775473053878924e-11 1.525337961889203450e-11 1.945283657307921046e-11 2.114304020993451475e-11
5.200000000000000178e-01 1.523806116518011767e-10 8.817370775506118277e-11 1.738860753866121168e-11 2.191783801087556339e-11 2.399796981541724637e-11
5.600000000000000533e-01 1.745017402429712393e-10 1.010929988694592309e-10 1.978670419519171309e-11 2.463840036859425510e-11 2.718174093288936372e-11
5.999999999999999778e-01 1.994505999337443620e-10 1.157117598160251073e-10 2.247504041845019182e-11 2.763324094242904288e-11 3.072410673781173175e-11
6.400000000000000133e-01 2.275322478805822295e-10 1.322223020368226761e-10 2.548321498026752256e-11 3.092148918116062075e-11 3.465645784388008677e-11
6.800000000000000488e-01 2.590771432167973797e-10 1.508339883409525386e-10 2.884316484383802832e-11 3.452257939267304432e-11 3.901178301871300783e-11
7.199999999999999734e-01 2.944423556924920494e-10 1.717740586264146190e-10 3.258927249286831126e-11 3.845613150892577166e-11 4.382461074226162624e-11
7.600000000000000089e-01 3.340127258750070660e-10 1.952883918536957452e-10 3.675846891662736666e-11 4.274182066948459647e-11 4.913093015609211235e-11
8.000000000000000444e-01 3.782019611777983217e-10 2.216421847188745370e-10 4.139033064151527299e-11 4.739923666264291562e-11 5.496809006168190295e-11
8.399999999999999689e-01 4.274536507267132537e-10 2.511205258237109199e-10 4.652716900413340918e-11 5.244773454758293596e-11 6.137467476721768302e-11
8.800000000000000044e-01 4.822421808351464379e-10 2.840288426425722957e-10 5.221410965773384686e-11 5.790627806477102115e-11 6.839035575627929219e-11
9.200000000000000400e-01 5.430735316610884530e-10 3.206931972998540159e-10 5.849916009675195392e-11 6.379327771813859303e-11 7.605571835906421812e-11
9.599999999999999645e-01 6.104859344800128790e-10 3.614604061596377932e-10 6.543326277721853819e-11 7.012642567444301021e-11 8.441206284784063463e-11
1.000000000000000000e+00 6.850503679514378109e-10 4.066979575574903988e-10 7.307033120953529543e-11 7.692252986515751857e-11 9.350117965303138535e-11
1.040000000000000036e+00 7.673708708108022879e-10 4.567937017399571740e-10 8.146726621071347154e-11 8.419734988691872268e-11 1.033650987041092187e-10
1.080000000000000071e+00 8.580846476125744951e-10 5.121552872877027151e-10 9.068394933305327691e-11 9.196543747072695673e-11 1.140458132391337820e-10
1.120000000000000107e+00 9.578619435194808294e-10 5.732093190485905069e-10 1.007832103436415144e-10 1.002399844209427640e-10 1.255849787964574819e-10
1.159999999999999920e+00 1.067405663714368762e-09 6.404002139581863956e-10 1.118307655230658368e-10 1.090326810064766695e-10 1.380235884993712190e-10
1.199999999999999956e+00 1.187450712846925017e-09 7.141887331315014030e-10 1.238951234921457513e-10 1.183535878131350274e-10 1.514016261660289625e-10
1.239999999999999991e+00 1.318763030061875961e-09 7.950501713163181432e-10 1.370474552724958786e-10 1.282110240336542687e-10 1.657576992189007098e-10
1.280000000000000027e+00 1.462138295635774362e-09 8.834721882385894912e-10 1.513614253507743624e-10 1.386114750776282688e-10 1.811286538254830992e-10
1.320000000000000062e+00 1.618400286125153654e-09 9.799522705630271965e-10 1.669129806578194242e-10 1.495595222258521218e-10 1.975491751694491385e-10
1.360000000000000098e+00 1.788398856249994101e-09 1.084994818139397791e-09 1.837800946023238417e-10 1.610577968327257260e-10 2.150513762224319066e-10
1.400000000000000133e+00 1.973007527552861382e-09 1.199107853890090984e-09 2.020424636231067684e-10 1.731069612980991237e-10 2.336643788539676463e-10
1.439999999999999947e+00 2.173120666234083167e-09 1.322799363079187962e-09 2.217811541519169567e-10 1.857057186898361585e-10 2.534138915727343350e-10
1.479999999999999982e+00 2.389650235511473718e-09 1.456573274726644183e-09 2.430781984157191679e-10 1.988508525056399901e-10 2.743217886273231401e-10
1.520000000000000018e+00 2.623522111428916607e-09 1.600925105508565512e-09 2.660161381569274418e-10 2.125372976241400134e-10 2.964056955999000377e-10
1.560000000000000053e+00 2.875671955273484501e-09 1.756337294507091347e-09 2.906775161126602534e-10 2.267582430191603475e-10 3.196785869912021264e-10
1.600000000000000089e+00 3.147040640677863220e-09 1.923274265507872758e-09 3.171443159671980881e-10 2.415052663069899080e-10 3.441484016098711115e-10
1.640000000000000124e+00 3.438569239094105266e-09 2.102177262033645941e-09 3.454973524692295428e-10 2.567684996748722359e-10 3.698176818323648843e-10
1.679999999999999938e+00 3.751193573621819545e-09 2.293459008771566473e-09 3.758156144771452962e-10 2.725368262110381112e-10 3.966832429807648051e-10
1.719999999999999973e+00 4.085838358138403314e-09 2.497498261304063277e-09 4.081755648474203564e-10 2.887981051339457301e-10 4.247358791639809350e-10
1.760000000000000009e+00 4.443410946271177287e-09 2.714634313877200808e-09 4.426504022947114537e-10 3.055394239125339634e-10 4.539601119328783924e-10
1.800000000000000044e+00 4.824794722911554759e-09 2.945161542115877576e-09 4.793092916052786161e-10 3.227473747913531388e-10 4.843339880021466608e-10
1.840000000000000080e+00 5.230842179617681561e-09 3.189324063894972436e-09 5.182165698513456328e-10 3.404083527947750325e-10 5.158289320827744595e-10
1.880000000000000115e+00 5.662367724279156618e-09 3.447310606774035924e-09 5.594309375031593023e-10 3.585088718923879960e-10 5.484096605416542088e-10
1.919999999999999929e+00 6.120140284697264148e-09 3.719249674281569498e-09 6.030046445348715834e-10 3.770358956709023485e-10 5.820341611537303505e-10
1.959999999999999964e+00 6.604875775114913526e-09 4.005205105688421972e-09 6.489826827346714226e-10 3.959771785825854494e-10 6.166537436338873026e-10
2.000000000000000000e+00 7.117229504038006739e-09 4.305172124554591559e-09 6.974019964221515535e-10 4.153216136305523241e-10 6.522131649296018639e-10
2.040000000000000036e+00 7.657788610730612336e-09 4.619073970114188105e-09 7.482907246094945793e-10 4.350595822093226802e-10 6.886508324230716155e-10
2.080000000000000071e+00 8.227064626327430648e-09 4.946759202358432279e-09 8.016674882812149190e-10 4.551833017449928108e-10 7.258990872379587611e-10
2.120000000000000107e+00 8.825486263363354192e-09 5.287999766407042935e-09 8.575407368752810917e-10 4.756871667711486062e-10 7.638845687791404990e-10
2.160000000000000142e+00 9.453392544435606220e-09 5.642489894391324182e-09 9.159081681950115737e-10 4.965680791304179031e-10 8.025286604654072218e-10
2.200000000000000178e+00 1.011102638644960911e-08 6.009845913626440934e-09 9.767562358392737089e-10 5.178257631017712623e-10 8.417480153597834087e-10
2.240000000000000213e+00 1.079852876121775937e-08 6.389607018399263844e-09 1.040059757786985795e-09 5.394630614133994799e-10 8.814551590784494760e-10
2.280000000000000249e+00 1.151593355585242510e-08 6.781237049371948163e-09 1.105781638996523569e-09 5.614862083023485498e-10 9.215591659886831529e-10
2.319999999999999840e+00 1.226316325720759554e-08 7.184127309587335202e-09 1.173872719775080202e-09 5.839050760166082655e-10 9.619664033135662424e-10
2.359999999999999876e+00 1.304002558339044113e-08 7.597600429603197281e-09 1.244271760240023275e-09 6.067333914145168335e-10 1.002581336373707443e-09
2.399999999999999911e+00 1.384621118192583217e-08 8.020915276673643003e-09 1.316905569445975590e-09 6.299889195920059428e-10 1.043307386843601768e-09
2.439999999999999947e+00 1.468129250839805854e-08 8.453272884480421427e-09 1.391689285709777419e-09 6.536936117531499548e-10 1.084047834613625970e-09
2.479999999999999982e+00 1.554472399124065620e-08 8.893823361077223124e-09 1.468526812362713776e-09 6.778737148277286384e-10 1.124706752660299636e-09
2.520000000000000018e+00 1.643584357777997545e-08 9.341673713862482074e-09 1.547311410636995225e-09 7.025598406268408930e-10 1.165189963269593926e-09
2.560000000000000053e+00 1.735387574369825389e-08 9.795896511976742066e-09 1.627926448702142336e-09 7.277869926117599788e-10 1.205406003062432363e-09
2.600000000000000089e+00 1.829793603286791137e-08 1.025553928897846324e-08 1.710246303065242687e-09 7.535945486321208717e-10 1.245267083568054534e-09
2.640000000000000124e+00 1.926703717718327004e-08 1.071963457243273572e-08 1.794137405702204468e-09 7.800261982693676274e-10 1.284690033607123685e-09
2.680000000000000160e+00 2.026009682680612962e-08 1.118721041258312484e-08 1.879459427465202398e-09 8.071298337045041276e-10 1.323597209506225327e-09
2.720000000000000195e+00 2.127594690043611544e-08 1.165730126997227655e-08 1.966066585587568311e-09 8.349573933219651308e-10 1.361917359188336896e-09
2.760000000000000231e+00 2.231334454316018827e-08 1.212895911209513830e-08 2.053809060555037275e-09 8.635646575718263465e-10 1.399586426484144227e-09
2.800000000000000266e+00 2.337098465652563169e-08 1.260126456222160903e-08 2.142534505303489416e-09 8.930109969497315889e-10 1.436548282594926955e-09
2.839999999999999858e+00 2.444751394215353811e-08 1.307333793965890896e-08 2.232089627706043388e-09 9.233590723275835673e-10 1.472755372510737841e-09
2.879999999999999893e+00 2.554154637693424300e-08 1.354435003011127792e-08 2.322321825687581955e-09 9.546744882877678925e-10 1.508169265342041776e-09
2.919999999999999929e+00 2.665168001510631969e-08 1.401353242752623528e-08 2.413080853104733060e-09 9.870254005881556432e-10 1.542761098945743104e-09
2.959999999999999964e+00 2.777651499080469181e-08 1.448018729489533587e-08 2.504220493794953456e-09 1.020482079421351321e-09 1.576511910897005820e-09
3.000000000000000000e+00 2.891467257444325511e-08 1.494369640081483959e-08 2.595600220957425328e-09 1.055116430734094661e-09 1.609412849748151428e-09
3.040000000000000036e+00 3.006481511801586520e-08 1.540352930102815307e-08 2.687086819294297863e-09 1.091001478542640143e-09 1.641465262590052318e-09
3.080000000000000071e+00 3.122566670845158469e-08 1.585925054939746466e-08 2.778555948110901791e-09 1.128210811914630570e-09 1.672680657147932224e-09
3.120000000000000107e+00 3.239603433487591694e-08 1.631052584043277097e-08 2.869893624829388849e-09 1.166818001080263234e-09 1.703080538954711095e-09
3.160000000000000142e+00 3.357482936526203709e-08 1.675712700521234948e-08 2.960997610076947561e-09 1.206895987973421316e-09 1.732696126498811388e-09
3.200000000000000178e+00 3.476108912066601208e-08 1.719893580376298033e-08 3.051778677617141114e-09 1.248516457369808114e-09 1.761567949583756425e-09
3.240000000000000213e+00 3.595399833108689333e-08 1.763594647918200246e-08 3.142161754836474143e-09 1.291749195661943264e-09 1.789745338406042265e-09
3.280000000000000249e+00 3.715291025592934369e-08 1.806826706139058473e-08 3.232086922201168641e-09 1.336661445163366040e-09 1.817285812997239925e-09
3.320000000000000284e+00 3.835736725391709003e-08 1.849611943079994835e-08 3.321510262974343745e-09 1.383317262635654407e-09 1.844254384628457050e-09
3.359999999999999876e+00 3.956712059184504630e-08 1.891983817374161274e-08 3.410404557437537746e-09 1.431776891447665120e-09 1.870722782485559770e-09
3.399999999999999911e+00 4.078214928840517488e-08 1.933986828166440270e-08 3.498759818794862003e-09 1.482096157370174805e-09 1.896768620341471645e-09
3.439999999999999947e+00 4.200267779802613746e-08 1.975676176427734134e-08 3.586583670754934913e-09 1.534325898443426568e-09 1.922474519033161267e-09
3.479999999999999982e+00 4.322919234971173131e-08 2.017117326251517209e-08 3.673901569390682283e-09 1.588511439592830406e-09 1.947927201258869062e-09
3.520000000000000018e+00 4.446245576668215861e-08 2.058385475998739534e-08 3.760756874182405154e-09 1.644692122674366497e-09 1.973216575517792399e-09
3.560000000000000053e+00 4.570352060363212976e-08 2.099564950109758329e-08 3.847210775078723020e-09 1.702900902374864345e-09 1.998434825902393646e-09
3.600000000000000089e+00 4.695374044904095911e-08 2.140748523004114533e-08 3.933342083900476445e-09 1.763164017847688308e-09 2.023675523915925633e-09
3.640000000000000124e+00 4.821477924967105200e-08 2.182036686727051689e-08 4.019246899418755482e-09 1.825500749112810106e-09 2.049032777529956679e-09
3.680000000000000160e+00 4.948861852270619364e-08 2.223536873874254948e-08 4.105038155933799099e-09 1.889923266082142897e-09 2.074600431335790711e-09
3.720000000000000195e+00 5.077756232755560064e-08 2.265362646843799128e-08 4.190845065161209330e-09 1.956436576586376142e-09 2.100471329909067845e-09
3.760000000000000231e+00 5.208423987396245247e-08 2.307632863649670069e-08 4.276812460712410582e-09 2.025038577989923971e-09 2.126736654439366892e-09
3.800000000000000266e+00 5.341160564564431137e-08 2.350470829419306871e-08 4.363100053476331963e-09 2.095720214909023888e-09 2.153485340328486344e-09
3.839999999999999858e+00 5.476293691938483223e-08 2.394003441334101940e-08 4.449881604828425740e-09 2.168465743229970002e-09 2.180803580894060213e-09
3.879999999999999893e+00 5.614182855860521765e-08 2.438360333212709225e-08 4.537344022890992609e-09 2.243253098107561966e-09 2.208774419599752383e-09
3.919999999999999929e+00 5.755218495849821209e-08 2.483673024246461642e-08 4.625686385141404772e-09 2.320054360967030023e-09 2.237477430446794514e-09
3.959999999999999964e+00 5.899820901752452313e-08 2.530074074645013318e-08 4.715118888622431157e-09 2.398836317805937863e-09 2.266988483386150792e-09
4.000000000000000000e+00 6.048438800836196759e-08 2.577696249213798851e-08 4.805861726971239559e-09 2.479561098374358078e-09 2.297379588930815927e-09
4.040000000000000036e+00 6.201547622133243151e-08 2.626671688240120669e-08 4.898143891575731052e-09 2.562186883188107914e-09 2.328718813648818660e-09
4.080000000000000071e+00 6.359647425610805613e-08 2.677131083588430112e-08 4.992201892514513391e-09 2.646668662891384342e-09 2.361070255981985390e-09
4.120000000000000107e+00 6.523260484440366967e-08 2.729202856671152873e-08 5.088278393660401797e-09 2.732959032324727482e-09 2.394494069941750980e-09
4.160000000000000142e+00 6.692928509871039220e-08 2.783012334036776351e-08 5.186620755538288793e-09 2.821008999863152949e-09 2.429046522751909346e-09
4.200000000000000178e+00 6.869209510120452004e-08 2.838680915761234058e-08 5.287479479322675341e-09 2.910768791255346313e-09 2.464780071500695825e-09
4.240000000000000213e+00 7.052674277396826636e-08 2.896325231689949384e-08 5.391106545815098216e-09 3.002188626397794952e-09 2.501743443380464349e-09
4.280000000000000249e+00 7.243902500761740935e-08 2.956056280891581461e-08 5.497753644411120162e-09 3.095219447286901998e-09 2.539981704168414440e-09
4.320000000000000284e+00 7.443478507113920567e-08 3.017978550470552515e-08 5.607670288977391952e-09 3.189813575863009602e-09 2.579536300256966166e-09
4.360000000000000320e+00 7.651986638170344981e-08 3.082189111147421900e-08 5.721101820210034665e-09 3.285925281631109705e-09 2.620445060781605753e-09
4.400000000000000355e+00 7.870006277955681693e-08 3.148776688740040205e-08 5.838287297404087700e-09 3.383511240833555461e-09 2.662742148204089676e-09
4.440000000000000391e+00 8.098106552956861163e-08 3.217820712832003393e-08 5.959457286566948312e-09 3.482530871557794006e-09 2.706457948058847757e-09
4.480000000000000426e+00 8.336840735683847992e-08 3.289390346447762587e-08 6.084831556364178373e-09 3.582946532462504244e-09 2.751618891411923556e-09
4.520000000000000462e+00 8.586740391778770373e-08 3.363543503398036065e-08 6.214616698372623033e-09 3.684723576749792610e-09 2.798247206849251375e-09
4.560000000000000497e+00 8.848309320863732289e-08 3.440325863030479419e-08 6.349003693387558546e-09 3.787830257527059247e-09 2.846360602423550135e-09
4.600000000000000533e+00 9.122017351794428673e-08 3.519769895320174921e-08 6.488165450920410215e-09 3.892237485694374343e-09 2.895971881851137958e-09
4.639999999999999680e+00 9.408294063627937443e-08 3.601893912451161668e-08 6.632254354348013953e-09 3.997918446844406162e-09 2.947088503254312931e-09
4.679999999999999716e+00 9.707522514114670793e-08 3.686701166153669107e-08 6.781399849238978663e-09 4.104848089235652768e-09 2.999712092774698968e-09
4.719999999999999751e+00 1.002003306754824544e-07 3.774179012945377973e-08 6.935706116988587265e-09 4.213002500542222062e-09 3.053837929314553843e-09
4.759999999999999787e+00 1.034609742298936233e-07 3.864298171950466717e-08 7.095249879843803238e-09 4.322358196628639088e-09 3.109454420369532281e-09
4.799999999999999822e+00 1.068592295184294413e-07 3.957012102010363067e-08 7.260078386505250090e-09 4.432891350870570370e-09 3.166542592270660273e-09
4.839999999999999858e+00 1.103964746013076340e-07 4.052256526234409851e-08 7.430207629580193139e-09 4.544576997362525840e-09 3.225075621031534469e-09
4.879999999999999893e+00 1.140733449519337382e-07 4.149949132856388924e-08 7.605620847076576115e-09 4.657388245543061982e-09 3.285018432282541343e-09
4.919999999999999929e+00 1.178896931862755188e-07 4.249989481168294308e-08 7.786267359747535443e-09 4.771295547154165425e-09 3.346327400360777266e-09
4.959999999999999964e+00 1.218445566670816125e-07 4.352259140318069885e-08 7.972061794325355739e-09 4.886266058873703586e-09 3.408950177420137278e-09
5.000000000000000000e+00 1.259361341609585276e-07 4.456622086828544146e-08 8.162883739465046121e-09 5.002263145274103978e-09 3.472825683355399506e-09
5.040000000000000036e+00 1.301617726609676463e-07 4.562925383790022717e-08 8.358577876533910124e-09 5.119246066845087386e-09 3.537884286341239190e-09
5.080000000000000071e+00 1.345179653899524417e-07 4.671000160797530478e-08 8.558954621256655273e-09 5.237169896578232141e-09 3.604048201838689350e-09
5.120000000000000107e+00 1.390003618698561440e-07 4.780662908873202502e-08 8.763791304722532511e-09 5.355985705982577684e-09 3.671232135007596461e-09
5.160000000000000142e+00 1.436037907803686477e-07 4.891717098893549197e-08 8.972833913488685692e-09 5.475641057354038739e-09 3.739344187600050726e-09
5.200000000000000178e+00 1.483222961378377092e-07 5.003955125520253274e-08 9.185799398620501873e-09 5.596080833665300729e-09 3.808287045637616311e-09
5.240000000000000213e+00 1.531491871049477069e-07 5.117160571431552345e-08 9.402378552681310407e-09 5.717248430624138499e-09 3.877959458562079878e-09
