#   Frequency (THz)          T(omega), 2x2x2          T(omega), 3x3x3          T(omega), 4x4x4          T(omega), 5x5x5          T(omega), 6x6x6      
0.000000000000000000e+00 2.181842029692668598e-11 1.266625350197907372e-11 2.728565814521215787e-12 3.871651080907912334e-12 3.923199452477081777e-12
4.000000000000000083e-02 2.565127080154741589e-11 1.485775197831088381e-11 3.183966678110359361e-12 4.487335565974833893e-12 4.567467449645197948e-12
8.000000000000000167e-02 3.009406508752333798e-11 1.739761648184598012e-11 3.707774839074435331e-12 5.188500856656356358e-12 5.306258694819371163e-12
1.199999999999999956e-01 3.523260709289649602e-11 2.033582727738279093e-11 4.309001497649657948e-12 5.984924034326463637e-12 6.151454743845099233e-12
1.600000000000000033e-01 4.116293488708158532e-11 2.372863712261958999e-11 4.997654602920917364e-12 6.887178210799312542e-12 7.116116575418886420e-12
2.000000000000000111e-01 4.799226915662468288e-11 2.763921473632372375e-11 5.784823617308150129e-12 7.906651350118473439e-12 8.214556382849140273e-12
2.399999999999999911e-01 5.584001298836871512e-11 3.213833161086429170e-11 6.682768467303212977e-12 9.055558693537876733e-12 9.462407473286603629e-12
2.800000000000000266e-01 6.483880102377139216e-11 3.730509135052291719e-11 7.705012545745755140e-12 1.034694783006697401e-11 1.087669120950244737e-11
3.200000000000000067e-01 7.513559530942002204e-11 4.322769991611770715e-11 8.866439577700132079e-12 1.179469546469747439e-11 1.247587982818332931e-11
3.599999999999999867e-01 8.689282435705673617e-11 5.000427423268281128e-11 1.018339410182151818e-11 1.341349496733168279e-11 1.427995387233716482e-11
4.000000000000000222e-01 1.002895610529383011e-10 5.774368556620025046e-11 1.167378525109895081e-11 1.521883383953202035e-11 1.631045288592758609e-11
4.400000000000000022e-01 1.155227341229898861e-10 6.656643289605197193e-11 1.335719344009692255e-11 1.722696031519928352e-11 1.859051793857342785e-11
4.799999999999999822e-01 1.328083668694206729e-10 7.660554020326711630e-11 1.525497947930925091e-11 1.945483841640499428e-11 2.114492447945307926e-11
5.200000000000000178e-01 1.523828358493786858e-10 8.800747016561827190e-11 1.739039554001974416e-11 2.192009091755631181e-11 2.400010396490065520e-11
5.600000000000000533e-01 1.745041410706323558e-10 1.009330452080714548e-10 1.978869728421719796e-11 2.464092982993402694e-11 2.718415266605959341e-11
5.999999999999999778e-01 1.994531781377736319e-10 1.155583652145292329e-10 2.247725635283881339e-11 2.763607420378774706e-11 3.072682604385446970e-11
6.400000000000000133e-01 2.275350016005152368e-10 1.320757094828412685e-10 2.548567227130724370e-11 3.092465525519529414e-11 3.465951708088620396e-11
6.800000000000000488e-01 2.590800675398120370e-10 1.506944087238289028e-10 2.884588268364783544e-11 3.452610905757988615e-11 3.901521698599753477e-11
7.199999999999999734e-01 2.944454421854933854e-10 1.716416710965868588e-10 3.259227066545875639e-11 3.846005729006761553e-11 4.382845673940202767e-11
7.600000000000000089e-01 3.340159620999723080e-10 1.951633444726401899e-10 3.676176769216018275e-11 4.274617680285406159e-11 4.913522802645349055e-11
8.000000000000000444e-01 3.782053301972022983e-10 2.215245953727980730e-10 4.139395065334619408e-11 4.740405903871042061e-11 5.497288221815009552e-11
8.399999999999999689e-01 4.274571306071241263e-10 2.510104833708857067e-10 4.653113110845906246e-11 5.245306063421217701e-11 6.138000619784645721e-11
8.800000000000000044e-01 4.822457441583546172e-10 2.839264082616346587e-10 5.221843477592986774e-11 5.791214680805402694e-11 6.839627400757941599e-11
9.200000000000000400e-01 5.430771450533460668e-10 3.205984060045784776e-10 5.850386904078202916e-11 6.379972942020836575e-11 7.606227349472310870e-11
9.599999999999999645e-01 6.104895581711038026e-10 3.613732684446508490e-10 6.543837605880942853e-11 7.013350184756166366e-11 8.441930738076652423e-11
1.000000000000000000e+00 6.850539553762972472e-10 4.066184611391210748e-10 7.307586883414675342e-11 7.693027306165615145e-11 9.350916844876646550e-11
1.040000000000000036e+00 7.673743682672271559e-10 4.567218133569063916e-10 8.147324745767875939e-11 8.420580350487125059e-11 1.033738888538581788e-10
1.080000000000000071e+00 8.580879939891591764e-10 5.120909545274248413e-10 9.069039252361986076e-11 9.197464553558095747e-11 1.140554639009038114e-10
1.120000000000000107e+00 9.578650701082195040e-10 5.731524721671687153e-10 1.007901325989950150e-10 1.002499913436933676e-10 1.255955510031109311e-10
1.159999999999999920e+00 1.067408494122336507e-09 6.403507676639900278e-10 1.118381825147660199e-10 1.090435313193578991e-10 1.380351449327463948e-10
1.199999999999999956e+00 1.187453163021046077e-09 7.141465883059530982e-10 1.239030491877342258e-10 1.183653258842047476e-10 1.514142308966913099e-10
1.239999999999999991e+00 1.318765008439952759e-09 7.950152166486183124e-10 1.370559016793409177e-10 1.282236937620643378e-10 1.657714174115404723e-10
1.280000000000000027e+00 1.462139703435651233e-09 8.834443017551086465e-10 1.513704022614926029e-10 1.386251195717885180e-10 1.811435514104788104e-10
1.320000000000000062e+00 1.618401017782118373e-09 9.799313210362464108e-10 1.669224954008473074e-10 1.495741834671126639e-10 1.975653184816527120e-10
1.360000000000000098e+00 1.788398800010207385e-09 1.084980666365582625e-09 1.837901518013973243e-10 1.610735153276062120e-10 2.150688316088109706e-10
1.400000000000000133e+00 1.973006566227819229e-09 1.199100353829295161e-09 2.020530649695352949e-10 1.731237757224804660e-10 2.336832122523406811e-10
1.439999999999999947e+00 2.173118678117809609e-09 1.322798362855551093e-09 2.217922981936067785e-10 1.857236655288893530e-10 2.534341680644562910e-10
1.479999999999999982e+00 2.389647095458349771e-09 1.456578617491178991e-09 2.430898803668980991e-10 1.988699656935941552e-10 2.743435719674109192e-10
1.520000000000000018e+00 2.623517692085869403e-09 1.600936630170668801e-09 2.660283497324522068e-10 2.125576081882737289e-10 2.964290477287131908e-10
1.560000000000000053e+00 2.875666128455666394e-09 1.756354836344722055e-09 2.906902453906409678e-10 2.267797787326387077e-10 3.197035675324092591e-10
1.600000000000000089e+00 3.147033278872104255e-09 1.923297656669662995e-09 3.171575472834505807e-10 2.415280513553436963e-10 3.441750673600182348e-10
1.640000000000000124e+00 3.438560217069383785e-09 2.102206331949110400e-09 3.455110663467722195e-10 2.567925543410390317e-10 3.698460862479110931e-10
1.679999999999999938e+00 3.751182770120891619e-09 2.293493584487929553e-09 3.758297875935882674e-10 2.725621665839278973e-10 3.967134356689389111e-10
1.719999999999999973e+00 4.085825657619709872e-09 2.497538167770008705e-09 4.081901700426590961e-10 2.888247428454773321e-10 4.247679053842406420e-10
1.760000000000000009e+00 4.443396240665314995e-09 2.714679374195097620e-09 4.426654086208405317e-10 3.055673659079884120e-10 4.539940121160931091e-10
1.800000000000000044e+00 4.824777913352185369e-09 2.945211577784595267e-09 4.793246644200925757e-10 3.227766231377135436e-10 4.843697972948715443e-10
1.840000000000000080e+00 5.230823178102872056e-09 3.189378895065373471e-09 5.182322709562018230e-10 3.404389045314776606e-10 5.158666799241251983e-10
1.880000000000000115e+00 5.662346455215940484e-09 3.447370052538592353e-09 5.594469253253506268e-10 3.585407189285695856e-10 5.484493702803096814e-10
1.919999999999999929e+00 6.120116686279984837e-09 3.719313553018258336e-09 6.030208743540129096e-10 3.770690247328298863e-10 5.820758497124833313e-10
1.959999999999999964e+00 6.604849800486580242e-09 4.005273235477265638e-09 6.489991069519523509e-10 3.960115712144717705e-10 6.166974212289185942e-10
2.000000000000000000e+00 7.117201122183958045e-09 4.305244323682785233e-09 6.974185648706568430e-10 4.153572462514115959e-10 6.522588348512684389e-10
2.040000000000000036e+00 7.657757807054891462e-09 4.619150057682968232e-09 7.483073849031687978e-10 4.350964262279116980e-10 6.886984908844670104e-10
2.080000000000000071e+00 8.227031402865087191e-09 4.946838999001537934e-09 8.016841861994515896e-10 4.552213237342114318e-10 7.259487232968266065e-10
2.120000000000000107e+00 8.825450638586002900e-09 5.288083095127035128e-09 8.575574167795678807e-10 4.757263287025520705e-10 7.639361643379122593e-10
2.160000000000000142e+00 9.453354552613174434e-09 5.642576581516167298e-09 9.159247734735628244e-10 4.966083386687392989e-10 8.025821903531686593e-10
2.200000000000000178e+00 1.011098607653859279e-08 6.009935789884704353e-09 9.767727093751626590e-10 5.178670739585527147e-10 8.418034474989027774e-10
2.240000000000000213e+00 1.079848619525477050e-08 6.389699920108198145e-09 1.040076042444929510e-09 5.395053737580233675e-10 8.815124547374014497e-10
2.280000000000000249e+00 1.151588880684203401e-08 6.781332819728565997e-09 1.105797678123203344e-09 5.615294692279269252e-10 9.216182801213109562e-10
2.319999999999999840e+00 1.226311640650466154e-08 7.184225800048617562e-09 1.173888457707700265e-09 5.839492300573689225e-10 9.620272849836413030e-10
2.359999999999999876e+00 1.303997671758946516e-08 7.597701501337854210e-09 1.244287142817706932e-09 6.067783811105025538e-10 1.002643929262228197e-09
2.399999999999999911e+00 1.384616038928300022e-08 8.021018802064196656e-09 1.316920544518594828e-09 6.300346860961145341e-10 1.043371629834790431e-09
2.439999999999999947e+00 1.468123987482533008e-08 8.453378748651419774e-09 1.391703803638885836e-09 6.537400954747792012e-10 1.084113662454123965e-09
2.479999999999999982e+00 1.554466959592505531e-08 8.893931463422718284e-09 1.468540826509414192e-09 6.779208561065795334e-10 1.124774096684594860e-09
2.520000000000000018e+00 1.643578748849514769e-08 9.341783969543751657e-09 1.547324877831803497e-09 7.026075804297649860e-10 1.165258752183322734e-09
2.560000000000000053e+00 1.735381801188840120e-08 9.796008853359813273e-09 1.627939329692211242e-09 7.278352732449590910e-10 1.205476163773864218e-09
2.600000000000000089e+00 1.829787668859672121e-08 1.025565366698016237e-08 1.710258562934667492e-09 7.536433144604820717e-10 1.245338542056865525e-09
2.640000000000000124e+00 1.926697622405154233e-08 1.071975095774376899e-08 1.794149014261524488e-09 7.800753964342963568e-10 1.284762715818477240e-09
2.680000000000000160e+00 2.026003423695117879e-08 1.118732879673740787e-08 1.879470359606661014e-09 8.071794148312858412e-10 1.323671042257291437e-09
2.720000000000000195e+00 2.127588260973348095e-08 1.165742166623291594e-08 1.966076821603148196e-09 8.350073122074715734e-10 1.361992271073640884e-09
2.760000000000000231e+00 2.231327844675331240e-08 1.212908155612960617e-08 2.053818586414746079e-09 8.636148738432572742e-10 1.399662348765658785e-09
2.800000000000000266e+00 2.337091660481146264e-08 1.260138911254129697e-08 2.142543312891842433e-09 8.930614756851053838e-10 1.436625150062540165e-09
2.839999999999999858e+00 2.444744373735159662e-08 1.307346467780175286e-08 2.232097715015163493e-09 9.234097846288188226e-10 1.472833124298731924e-09
2.879999999999999893e+00 2.554147377036314009e-08 1.354447906055006177e-08 2.322329196965721949e-09 9.547254117974571590e-10 1.508247845687435948e-09
2.919999999999999929e+00 2.665160470528482790e-08 1.401366387728981189e-08 2.413087518959481342e-09 9.870765199415349513e-10 1.542840457874901870e-09
2.959999999999999964e+00 2.777643662248454277e-08 1.448032131289494286e-08 2.504226471250709015e-09 1.020533386625480498e-09 1.576592004827653993e-09
3.000000000000000000e+00 2.891459073866756167e-08 1.494383315687316308e-08 2.595605533467088697e-09 1.055167925466934095e-09 1.609493641995013303e-09
3.040000000000000036e+00 3.006472935328060870e-08 1.540366898461435180e-08 2.687091496705375329e-09 1.091053168365485452e-09 1.641546723763591397e-09
3.080000000000000071e+00 3.122557650302856315e-08 1.585939336807713108e-08 2.778560026586491445e-09 1.128262712392270919e-09 1.672762765437212862e-09
3.120000000000000107e+00 3.239593913033343419e-08 1.631067201804776834e-08 2.869897146724708578e-09 1.166870135804261305e-09 1.703163280287133903e-09
3.160000000000000142e+00 3.357472856119576374e-08 1.675727677981101734e-08 2.961000623772212719e-09 1.206948388485030824e-09 1.732779494571396791e-09
3.200000000000000178e+00 3.476098208062615153e-08 1.719908942530671343e-08 3.051781237307755950e-09 1.248569162980280195e-09 1.761651945762712318e-09
3.240000000000000213e+00 3.595388438966089259e-08 1.763610420705951341e-08 3.142163920281601152e-09 1.291802253169271710e-09 1.789829971493568359e-09
3.280000000000000249e+00 3.715278872691101002e-08 1.806842916177558145e-08 3.232088758431800813e-09 1.336714908465897376e-09 1.817371098866764257e-09
3.320000000000000284e+00 3.835723743946496920e-08 1.849628617389229479e-08 3.321511839962117989e-09 1.383371192244407848e-09 1.844340345731808806e-09
3.359999999999999876e+00 3.956698179250472823e-08 1.892000983093527757e-08 3.410405949725572869e-09 1.431831353900648164e-09 1.870809447237883777e-09
3.399999999999999911e+00 4.078200081384405315e-08 1.934004512268821353e-08 3.498761105091995185e-09 1.482151224553457168e-09 1.896856022391923080e-09
3.439999999999999947e+00 4.200251897830346067e-08 1.975694405435639205e-08 3.586584933494798875e-09 1.534381646825135782e-09 1.922562696431550757e-09
3.479999999999999982e+00 4.322902254688449627e-08 2.017136125960143869e-08 3.673902894257223731e-09 1.588567949377666730e-09 1.948016195530424364e-09
3.520000000000000018e+00 4.446227438652756327e-08 2.058404871210812574e-08 3.760758349603512107e-09 1.644749476887538446e-09 1.973306430660020751e-09
3.560000000000000053e+00 4.570332710725098492e-08 2.099584964386900092e-08 3.847212491689854430e-09 1.702959185885600729e-09 1.998525587319597041e-09
3.600000000000000089e+00 4.695353436409435468e-08 2.140769178439275608e-08 3.933344133980329806e-09 1.763223316343604792e-09 2.023767237308249277e-09
3.640000000000000124e+00 4.821456018099483792e-08 2.182058003742240441e-08 4.019249376299288942e-09 1.825561148037398197e-09 2.049125487754872901e-09
3.680000000000000160e+00 4.948838616204470529e-08 2.223558871047403651e-08 4.105041153387124362e-09 1.889984849548453288e-09 2.074694181260658416e-09
3.720000000000000195e+00 5.077731646215865284e-08 2.265385340768113480e-08 4.190848676766214500e-09 1.956499426280641271e-09 2.100566159273747594e-09
3.760000000000000231e+00 5.208398039379693827e-08 2.307656268828251018e-08 4.276816779204247132e-09 2.025102772079275738e-09 2.126832598747941982e-09
3.800000000000000266e+00 5.341133254898488420e-08 2.350494958197187468e-08 4.363105170082253219e-09 2.095785826967702380e-09 2.153582429788801962e-09
3.839999999999999858e+00 5.476265031656657953e-08 2.394028303869160031e-08 4.449887608593797641e-09 2.168532841198403961e-09 2.180901839423118568e-09
3.879999999999999893e+00 5.614152867374495752e-08 2.438385937486168673e-08 4.537350999999633310e-09 2.243321743298475296e-09 2.208873863912002098e-09
3.919999999999999929e+00 5.755187212902008864e-08 2.483699376112920872e-08 4.625694418234784394e-09 2.320124607132226554e-09 2.237578069241017457e-09
3.959999999999999964e+00 5.899788369135937152e-08 2.530101177921152829e-08 4.715128056122542565e-09 2.398908210276730823e-09 2.267090316645011326e-09
4.000000000000000000e+00 6.048405073872800281e-08 2.577724105804133182e-08 4.805872102412269512e-09 2.479634673287637583e-09 2.297482607345232538e-09
4.040000000000000036e+00 6.201512765904684948e-08 2.626700298297381110e-08 4.898155542949928263e-09 2.562262166808881695e-09 2.328822998177180500e-09
4.080000000000000071e+00 6.359611513942485518e-08 2.677160445705418328e-08 4.992214881637842733e-09 2.646745671041272874e-09 2.361175577551910655e-09
4.120000000000000107e+00 6.523223598642070579e-08 2.729232968100207804e-08 5.088292775563738548e-09 2.733037769924321346e-09 2.394600489299586361e-09
4.160000000000000142e+00 6.692890737243874258e-08 2.783043190932370070e-08 5.186636577889998593e-09 2.821089460594446625e-09 2.429153990462617531e-09
4.200000000000000178e+00 6.869170942244377968e-08 2.838712513440639546e-08 5.287496781888442914e-09 2.910850957348642811e-09 2.464888528098123611e-09
4.240000000000000213e+00 7.052635008218313820e-08 2.896357564906467549e-08 5.391125359960809199e-09 3.002272468545519376e-09 2.501852819665368787e-09
4.280000000000000249e+00 7.243862624505991706e-08 2.956089344114422331e-08 5.497773992654448145e-09 3.095304924684833196e-09 2.540091921649068030e-09
4.320000000000000284e+00 7.443438116051022460e-08 3.018012338165231267e-08 5.607692184593527802e-09 3.189900636377385538e-09 2.579647271724676042e-09
4.360000000000000320e+00 7.651945820269195901e-08 3.082223618050369922e-08 5.721125266896685825e-09 3.286013862088146048e-09 2.620556691011195455e-09
4.400000000000000355e+00 7.869965114463676647e-08 3.148811910121113175e-08 5.838312289010425160e-09 3.383601267425960604e-09 2.662854334767269982e-09
4.440000000000000391e+00 8.098065115947048957e-08 3.217856644738666985e-08 5.959483806890749668e-09 3.482622260361074937e-09 2.706570582236553057e-09
4.480000000000000426e+00 8.336799085614252117e-08 3.289426985924982223e-08 6.084859579020837985e-09 3.583039190052185973e-09 2.751731859190079320e-09
4.520000000000000462e+00 8.586698575111002192e-08 3.363580848678234639e-08 6.214646186739009619e-09 3.684817400909167961e-09 2.798360389981192521e-09
4.560000000000000497e+00 8.848267367789659169e-08 3.440363913688396101e-08 6.349034600623015649e-09 3.787925138033801641e-09 2.846473879541313782e-09
4.600000000000000533e+00 9.121975274120359792e-08 3.519808652388065601e-08 6.488197720066476130e-09 3.892333305173277462e-09 2.896085129607291965e-09
4.639999999999999680e+00 9.408251852865706666e-08 3.601933378490437435e-08 6.632287918507539419e-09 3.998015081672728581e-09 2.947201597475707411e-09
4.679999999999999716e+00 9.707480139827892197e-08 3.686741345279877102e-08 6.781434631834475221e-09 4.104945410486956264e-09 2.999824909609638415e-09
4.719999999999999751e+00 1.001999047599984389e-07 3.774219910804265428e-08 6.935742032098816974e-09 4.213100374954407019e-09 3.053950346355342436e-09
4.759999999999999787e+00 1.034605453613340443e-07 3.864339795643811972e-08 7.095286832616641063e-09 4.322456487581849004e-09 3.109566317733151020e-09
4.799999999999999822e+00 1.068587966669966952e-07 3.957054459971207616e-08 7.260116273644021434e-09 4.432989919360955483e-09 3.166653853621392179e-09
4.839999999999999858e+00 1.103960364857849125e-07 4.052299628052339929e-08 7.430246339899756764e-09 4.544675702958468888e-09 3.225186134530816078e-09
4.879999999999999893e+00 1.140729000420496269e-07 4.149992989054532248e-08 7.605660262124575660e-09 4.657486947311206893e-09 3.285128091452897436e-09
4.919999999999999929e+00 1.178892397097201825e-07 4.250034102934682254e-08 7.786307354485537989e-09 4.771394104543772656e-09 3.346436104852601993e-09
4.959999999999999964e+00 1.218440926213033836e-07 4.352304539195037783e-08 7.972102237863619803e-09 4.886364332548996476e-09 3.409057833672087863e-09
5.000000000000000000e+00 1.259356573297849426e-07 4.456668274364735076e-08 8.162924495844240426e-09 5.002360997885803271e-09 3.472932205141375217e-09
5.040000000000000036e+00 1.301612806360047006e-07 4.562972371160479332e-08 8.358618805546331889e-09 5.119343363733834866e-09 3.537989595199138000e-09
5.080000000000000071e+00 1.345174555966221574e-07 4.671047958398123060e-08 8.558995579299063354e-09 5.237266506404314134e-09 3.604152227378418155e-09
5.120000000000000107e+00 1.389998315978345667e-07 4.780711525896376625e-08 8.763832145672328536e-09 5.356081501278060674e-09 3.671334815098129286e-09
5.160000000000000142e+00 1.436032372180921424e-07 4.891766542892954764e-08 8.972874489594825634e-09 5.475735914995215231e-09 3.739445468437495351e-09
5.200000000000000178e+00 1.483217164106475799e-07 5.004005401972262030e-08 9.185839561400495667e-09 5.596174635264965585e-09 3.808386881698425628e-09
5.240000000000000213e+00 1.531485783163523747e-07 5.117211683302046845e-08 9.402418153815501801e-09 5.717341062845030842e-09 3.878057812447493544e-09
