#   Frequency (THz)          T(omega), 2x2x2          T(omega), 3x3x3          T(omega), 4x4x4          T(omega), 5x5x5          T(omega), 6x6x6      
0.000000000000000000e+00 2.419477416838301120e-14 6.232713572473460677e-14 5.459717858510239226e-15 1.297607066487951148e-15 6.054961292375719152e-15
4.000000000000000083e-02 1.102566692954476086e-13 2.655248641593868556e-13 2.480544572589599056e-14 4.002208386721320824e-15 2.461168860639275289e-14
8.000000000000000167e-02 4.381087843282969537e-13 1.005384053569820939e-12 9.787543395221691236e-14 1.065927161359836442e-14 8.982244786303865472e-14
1.199999999999999956e-01 1.511020483291814394e-12 3.292928237745527216e-12 3.339778101325803153e-13 2.467254007795745053e-14 2.872170501837565529e-13
1.600000000000000033e-01 4.509165664250101909e-12 9.276066565514358950e-12 9.829921504765922107e-13 5.009218896428145239e-14 7.979574545205369048e-13
2.000000000000000111e-01 1.162142163775037855e-11 2.246297210362332811e-11 2.492401059700542088e-12 9.035509661332750710e-14 1.919707638853872878e-12
2.399999999999999911e-01 2.585026364628369263e-11 4.681692289656017312e-11 5.443040271065222143e-12 1.472478155275704324e-13 3.994438275330833780e-12
2.800000000000000266e-01 4.964664042124779204e-11 8.416902430309126524e-11 1.024684773369568651e-11 2.212919102571668437e-13 7.191300286383917297e-12
3.200000000000000067e-01 8.246270943106141938e-11 1.310252845696171237e-10 1.666518239039519560e-11 3.138426595890630980e-13 1.122759330612021051e-11
3.599999999999999867e-01 1.188973528427039953e-10 1.778002338432862792e-10 2.352145185055730280e-11 4.299046107937514706e-13 1.528687969757359312e-11
4.000000000000000222e-01 1.499785903930258295e-10 2.130702245950569765e-10 2.908316102586773471e-11 5.798806842434087520e-13 1.837474222598271661e-11
4.400000000000000022e-01 1.683197911403881975e-10 2.313766315579243861e-10 3.213471597121474631e-11 7.781127106111754341e-13 2.000622110062044380e-11
4.799999999999999822e-01 1.740750373691584863e-10 2.387809037394500301e-10 3.302162290754069081e-11 1.037563172830083604e-12 2.071658423734439330e-11
5.200000000000000178e-01 1.767201056834290693e-10 2.510130511516157225e-10 3.374524936607484545e-11 1.365329044907325291e-12 2.191271117172564160e-11
5.600000000000000533e-01 1.905607155455258384e-10 2.849473879113737496e-10 3.691643759306319754e-11 1.767285169543264666e-12 2.510737618792216646e-11
5.999999999999999778e-01 2.270110810059631420e-10 3.491776165967041024e-10 4.431675236235337649e-11 2.261153870810807733e-12 3.106328356404629352e-11
6.400000000000000133e-01 2.886248605060292601e-10 4.387674348906577605e-10 5.595903430126678325e-11 2.881025930988646638e-12 3.933114167782362840e-11
6.800000000000000488e-01 3.672552888008293790e-10 5.357582735541462817e-10 6.994524268290668593e-11 3.658508241438218731e-12 4.832042669868091676e-11
7.199999999999999734e-01 4.461672357522485010e-10 6.161053141491079150e-10 8.306532228569528923e-11 4.594327221648824652e-12 5.591377909569847781e-11
7.600000000000000089e-01 5.065411896142031868e-10 6.631776825856228555e-10 9.222013590961268865e-11 5.654969681651877808e-12 6.061440977573626333e-11
8.000000000000000444e-01 5.384323241827402687e-10 6.818229169230297854e-10 9.643015192677004345e-11 6.807231714152487592e-12 6.276825939663511027e-11
8.399999999999999689e-01 5.506781624693166020e-10 7.001403178313580498e-10 9.811488538144705653e-11 8.059172182993153214e-12 6.481871165538378248e-11
8.800000000000000044e-01 5.696472868552905257e-10 7.520910663285720293e-10 1.020592196827699373e-10 9.465089269126177946e-12 6.992771812493138739e-11
9.200000000000000400e-01 6.231886469132638537e-10 8.524996154917502344e-10 1.122653747045963706e-10 1.109450424202530970e-11 7.976432322546772034e-11
9.599999999999999645e-01 7.206837657330672676e-10 9.862342585979887998e-10 1.291479320455799101e-10 1.300776745188336521e-11 9.327859242750433864e-11
1.000000000000000000e+00 8.464596193954401124e-10 1.120895037352943207e-09 1.494731886526377554e-10 1.525804022597540064e-11 1.074992465403940000e-10
1.040000000000000036e+00 9.725219287492346539e-10 1.230161340530141908e-09 1.688584455548954245e-10 1.787897302314710718e-11 1.195470165950100137e-10
1.080000000000000071e+00 1.078313483031194219e-09 1.307691966314369133e-09 1.843990024370082903e-10 2.083041028950743210e-11 1.281765605060153272e-10
1.120000000000000107e+00 1.160030727588805241e-09 1.364895579605238670e-09 1.955264726487555069e-10 2.397606944444338044e-11 1.340797041658427345e-10
1.159999999999999920e+00 1.225860075751258840e-09 1.421631734041550328e-09 2.035413067693196067e-10 2.719430154371505771e-11 1.394637503253611111e-10
1.199999999999999956e+00 1.288898769804176639e-09 1.498996109471635628e-09 2.112429932318803371e-10 3.056435052047154058e-11 1.473624277559078690e-10
1.239999999999999991e+00 1.366522955658440506e-09 1.612837888055134076e-09 2.225901779596817854e-10 3.440174998181227672e-11 1.603443075204765402e-10
1.280000000000000027e+00 1.479346447574863991e-09 1.764589447829952496e-09 2.410447755293005170e-10 3.901396522226062993e-11 1.786889808182372761e-10
1.320000000000000062e+00 1.639871582868739759e-09 1.935880624437122547e-09 2.668073970053681410e-10 4.437458793435248757e-11 1.995230548263596277e-10
1.360000000000000098e+00 1.837478469043444365e-09 2.097038893928605652e-09 2.956551632845384172e-10 5.008469090844940442e-11 2.183641120799278564e-10
1.400000000000000133e+00 2.038450888558081257e-09 2.226527747078467424e-09 3.214298883698863561e-10 5.573389548594134258e-11 2.322524588667570009e-10
1.439999999999999947e+00 2.207094798497111629e-09 2.325092463274582308e-09 3.404403065946554619e-10 6.133271137493379513e-11 2.418473318369382299e-10
1.479999999999999982e+00 2.331260153840914862e-09 2.413582141952924905e-09 3.538772512822901891e-10 6.737339023038507875e-11 2.508537398774894127e-10
1.520000000000000018e+00 2.431247635476299867e-09 2.519271784195228659e-09 3.665098603725864523e-10 7.443929188077376211e-11 2.635550663687416081e-10
1.560000000000000053e+00 2.547602583982440470e-09 2.661621079429185417e-09 3.834353675962349816e-10 8.271999086669145715e-11 2.823201183998203252e-10
1.600000000000000089e+00 2.718345441724185382e-09 2.842958541754625838e-09 4.074826573532551840e-10 9.185683647122935229e-11 3.063811303589276256e-10
1.640000000000000124e+00 2.957746445213752808e-09 3.046332660526110470e-09 4.382505839803409023e-10 1.012400987637016051e-10 3.323446818893122362e-10
1.679999999999999938e+00 3.245968780931695766e-09 3.244242895358587479e-09 4.725392822627780034e-10 1.105175936817572169e-10 3.562448575382738328e-10
1.719999999999999973e+00 3.537901110990484405e-09 3.416939338025056602e-09 5.059884656962832241e-10 1.199153790743042767e-10 3.760400210850422388e-10
1.760000000000000009e+00 3.791589719044709508e-09 3.566890913601734220e-09 5.355315491453500514e-10 1.300965840980686344e-10 3.927772609793751321e-10
1.800000000000000044e+00 3.998906514607817628e-09 3.714419528768899501e-09 5.611635726103885920e-10 1.416251054319223780e-10 4.094318836853522600e-10
1.840000000000000080e+00 4.191559254934678829e-09 3.877858609184908113e-09 5.853618783937980911e-10 1.544520162670088815e-10 4.285517619484601389e-10
1.880000000000000115e+00 4.413600636016961669e-09 4.060101818174327510e-09 6.107312317908920572e-10 1.679237536155470879e-10 4.510400536159697873e-10
1.919999999999999929e+00 4.685774775249592148e-09 4.255362721955785214e-09 6.386482332279835596e-10 1.814154141854319547e-10 4.768678843278895062e-10
1.959999999999999964e+00 4.997950007091469118e-09 4.463109573311269189e-09 6.701956574126002649e-10 1.950161176220806271e-10 5.059569810489268145e-10
2.000000000000000000e+00 5.333994014299877122e-09 4.687879178786515510e-09 7.070355172971281735e-10 2.094895151932758195e-10 5.375210803245446998e-10
2.040000000000000036e+00 5.694168803444306063e-09 4.926459925140680614e-09 7.497988011472904788e-10 2.254935247392807625e-10 5.689242674820415693e-10
2.080000000000000071e+00 6.085133370014364379e-09 5.163644296879748887e-09 7.957803428914491027e-10 2.429623918599968296e-10 5.965277943339363936e-10
2.120000000000000107e+00 6.493033124872623313e-09 5.385278699799743128e-09 8.397253554768735961e-10 2.613442039373258394e-10 6.187001367696743646e-10
2.160000000000000142e+00 6.881073151495496092e-09 5.592598944920563009e-09 8.777696533711258361e-10 2.802672362939190749e-10 6.381014894621701831e-10
2.200000000000000178e+00 7.223540631116458258e-09 5.800540455402973412e-09 9.104819563836356253e-10 2.997429125801627337e-10 6.605522103896768045e-10
2.240000000000000213e+00 7.540735003504058894e-09 6.023686887307281755e-09 9.421907954151873391e-10 3.197967014416606792e-10 6.910087195494483281e-10
2.280000000000000249e+00 7.893739313666217199e-09 6.266725378973969744e-09 9.780510999723821844e-10 3.402696707467940455e-10 7.298073705932097378e-10
2.319999999999999840e+00 8.339460315998752268e-09 6.527609014509096243e-09 1.021690550595405830e-09 3.612371377029796306e-10 7.720875662654808486e-10
2.359999999999999876e+00 8.885162319883043226e-09 6.805697656265109238e-09 1.074049072415736540e-09 3.834311447181225120e-10 8.108843337319083109e-10
2.399999999999999911e+00 9.480406365117790292e-09 7.102578921694880088e-09 1.132621234717150536e-09 4.077751763478689133e-10 8.417874597982797059e-10
2.439999999999999947e+00 1.005279053953183677e-08 7.413231859169896197e-09 1.191757843077472862e-09 4.343043963028578802e-10 8.659450241448598133e-10
2.479999999999999982e+00 1.056139486585506914e-08 7.718964877023673682e-09 1.245470639099633134e-09 4.618644053353013563e-10 8.892801264139784989e-10
2.520000000000000018e+00 1.102784593822651756e-08 7.995662970780525837e-09 1.291609192251119263e-09 4.892344886254471127e-10 9.184506699371560429e-10
2.560000000000000053e+00 1.151901679830813359e-08 8.235456419261964838e-09 1.333729548676340999e-09 5.164656681776298324e-10 9.564269212559965275e-10
2.600000000000000089e+00 1.209310368653261236e-08 8.462549122413366553e-09 1.378649645975813348e-09 5.448170071947849784e-10 1.000801596932609966e-09
2.640000000000000124e+00 1.275382154491846715e-08 8.725463858047223450e-09 1.431779905428683957e-09 5.753174726062691293e-10 1.045839241598348592e-09
2.680000000000000160e+00 1.345303800785117515e-08 9.066477153002879683e-09 1.494024269139981116e-09 6.075477080946764886e-10 1.086451852659659752e-09
2.720000000000000195e+00 1.413957994591587232e-08 9.486804125650700003e-09 1.562109652930678564e-09 6.399788338395042480e-10 1.121114654329799888e-09
2.760000000000000231e+00 1.480796593131095674e-08 9.933661738198526873e-09 1.631247563385357854e-09 6.716255692432972438e-10 1.152073673227840052e-09
2.800000000000000266e+00 1.549867671714685508e-08 1.032758562529849035e-08 1.697856228168249815e-09 7.034481617724233267e-10 1.183417917069376092e-09
2.839999999999999858e+00 1.625015662404242493e-08 1.061980670347600291e-08 1.760977835070727691e-09 7.380035489764014526e-10 1.218617556194346278e-09
2.879999999999999893e+00 1.705587967188527947e-08 1.083649684728256837e-08 1.822160524679166217e-09 7.773074150015233979e-10 1.258809096132669704e-09
2.919999999999999929e+00 1.787495419691003196e-08 1.106721378583988496e-08 1.884045701034334966e-09 8.205769731871219571e-10 1.302490188513968929e-09
2.959999999999999964e+00 1.868258174656034888e-08 1.140077323320146921e-08 1.948681552778559249e-09 8.640516361881350107e-10 1.346733680766140283e-09
3.000000000000000000e+00 1.950103101186553565e-08 1.186093879426122586e-08 2.017170222905216842e-09 9.037320092292788074e-10 1.389244580153987306e-09
3.040000000000000036e+00 2.037599783482296631e-08 1.239392333879171881e-08 2.090684960822366246e-09 9.391816184613129906e-10 1.429748806717241739e-09
3.080000000000000071e+00 2.132545006692811830e-08 1.291066769018181832e-08 2.170588849699807980e-09 9.747325667898320624e-10 1.469388707167286359e-09
3.120000000000000107e+00 2.231848288610707989e-08 1.334351712844201988e-08 2.256325966864221413e-09 1.016166507023963369e-09 1.508714332654648105e-09
3.160000000000000142e+00 2.330924093843240226e-08 1.367896489247082670e-08 2.343467109005341497e-09 1.065507864986299280e-09 1.546779973516106741e-09
3.200000000000000178e+00 2.428921367561883187e-08 1.395783583998064225e-08 2.425445316928569582e-09 1.119060205232339156e-09 1.582854289918953310e-09
3.240000000000000213e+00 2.529843854997051196e-08 1.425315459058812885e-08 2.498728587060768623e-09 1.170776395625644190e-09 1.618864287208082020e-09
3.280000000000000249e+00 2.638212103423243930e-08 1.463616912297245548e-08 2.566799790920174286e-09 1.217575252137263666e-09 1.659210565464981007e-09
3.320000000000000284e+00 2.754138554166082951e-08 1.514042524614487775e-08 2.638876501435400739e-09 1.261516039775593078e-09 1.707147514054032981e-09
3.359999999999999876e+00 2.873276742108718159e-08 1.573997338029009467e-08 2.724254853967079917e-09 1.307417689074871967e-09 1.760683650642377596e-09
3.399999999999999911e+00 2.991781874148743262e-08 1.635801541446695042e-08 2.826537385622509944e-09 1.358906767278371780e-09 1.812096109947640107e-09
3.439999999999999947e+00 3.111080068518232404e-08 1.690614187266367580e-08 2.940767737141920412e-09 1.416286600280246753e-09 1.852681324138646969e-09
3.479999999999999982e+00 3.236958057354120535e-08 1.733335910640726898e-08 3.054371396594632767e-09 1.476854073709722713e-09 1.880019470952267075e-09
3.520000000000000018e+00 3.372901667485445798e-08 1.765810585076047001e-08 3.152828312868428146e-09 1.536521381746046679e-09 1.901900839605196865e-09
3.560000000000000053e+00 3.514502728902964466e-08 1.796602971035262999e-08 3.229580786677475143e-09 1.592076301893516724e-09 1.932263253919122089e-09
3.600000000000000089e+00 3.652498037359751141e-08 1.836934894425963635e-08 3.294096190485113113e-09 1.643570392113722973e-09 1.980657635978634047e-09
3.640000000000000124e+00 3.783171308620744199e-08 1.894100948926024300e-08 3.368892340516935788e-09 1.695137022080612732e-09 2.043519540348160329e-09
3.680000000000000160e+00 3.915032119269627279e-08 1.966075630211570292e-08 3.473874188460836466e-09 1.752603904532039578e-09 2.105654057547284946e-09
3.720000000000000195e+00 4.062846523434328930e-08 2.041668798874113872e-08 3.609747553457196732e-09 1.819014321922157764e-09 2.151744291295007227e-09
3.760000000000000231e+00 4.233575222476413298e-08 2.107107930394238682e-08 3.756047148156532044e-09 1.891788862025773620e-09 2.178182507841046435e-09
3.800000000000000266e+00 4.418194363864798924e-08 2.154814293442435502e-08 3.886593570663637387e-09 1.964344715275182181e-09 2.195243188118275263e-09
3.839999999999999858e+00 4.598095900024185116e-08 2.188480450540160452e-08 3.988759916428595016e-09 2.031053712764000148e-09 2.218700261873971185e-09
3.879999999999999893e+00 4.760811672451971886e-08 2.221362415953586522e-08 4.070670316004927068e-09 2.091392438341860901e-09 2.258547496335321726e-09
3.919999999999999929e+00 4.911059237106673552e-08 2.268720917059587703e-08 4.153054027376438910e-09 2.150013788745002641e-09 2.313109110846508984e-09
3.959999999999999964e+00 5.067182733162022788e-08 2.338355046003082153e-08 4.254483191634705675e-09 2.213030078565404640e-09 2.371512797965174029e-09
4.000000000000000000e+00 5.245836395437140966e-08 2.424835648098200860e-08 4.380420361706846670e-09 2.283529203690120982e-09 2.421774062559213161e-09
4.040000000000000036e+00 5.448104243749238831e-08 2.511925740922059631e-08 4.522048868127923436e-09 2.359675757206843505e-09 2.458621156126371645e-09
4.080000000000000071e+00 5.659586066505351133e-08 2.582649073502685553e-08 4.664930869333728234e-09 2.437003803936864933e-09 2.485812054251957695e-09
4.120000000000000107e+00 5.865106776214882265e-08 2.630654889624844679e-08 4.800421414915698767e-09 2.513039409940913555e-09 2.511915753001748318e-09
4.160000000000000142e+00 6.064206178626654314e-08 2.665085755571043306e-08 4.929571793095958651e-09 2.589494761002337789e-09 2.543520941464775535e-09
4.200000000000000178e+00 6.270578285520487873e-08 2.705300272641153614e-08 5.056629319694450247e-09 2.669136910329896829e-09 2.581511723148920174e-09
4.240000000000000213e+00 6.494511320187455660e-08 2.768288772960416156e-08 5.181223674305720796e-09 2.750674179287632039e-09 2.622797629853575869e-09
4.280000000000000249e+00 6.727946404619138549e-08 2.856705065516254081e-08 5.299904283574378027e-09 2.828431116584359025e-09 2.664625668681851789e-09
4.320000000000000284e+00 6.951348096819777042e-08 2.956206234398362371e-08 5.415170330305361217e-09 2.898771320305979895e-09 2.706678185879305900e-09
4.360000000000000320e+00 7.156810262466200513e-08 3.045253722916456810e-08 5.538898908649210622e-09 2.966620129969688171e-09 2.749403010536805482e-09
4.400000000000000355e+00 7.361436779457919566e-08 3.110875934571176936e-08 5.683127356024596678e-09 3.043439474855119963e-09 2.791251328545429138e-09
4.440000000000000391e+00 7.594386262248579405e-08 3.158008182267213897e-08 5.847767465215749941e-09 3.136690043723220198e-09 2.828234370227655501e-09
4.480000000000000426e+00 7.869430517104383570e-08 3.204749065371242706e-08 6.019235971997433998e-09 3.241207742349816718e-09 2.856798015404605726e-09
4.520000000000000462e+00 8.170330012887106357e-08 3.268032067311398325e-08 6.180509425820222798e-09 3.342226036218815234e-09 2.878086385360727530e-09
4.560000000000000497e+00 8.463307990114729773e-08 3.352079865163273115e-08 6.321794975172874831e-09 3.427865499504425637e-09 2.899860567675795989e-09
4.600000000000000533e+00 8.724843162964389006e-08 3.448001200110953928e-08 6.445156405949955013e-09 3.499377346120155194e-09 2.933003722409730702e-09
4.639999999999999680e+00 8.960250196202148295e-08 3.542318417766212134e-08 6.564198620007472121e-09 3.570178944170585095e-09 2.983424104974263937e-09
4.679999999999999716e+00 9.198589594630239317e-08 3.626163369254053297e-08 6.699029906337274427e-09 3.655166604411607795e-09 3.045068761131822515e-09
4.719999999999999751e+00 9.469498148341517527e-08 3.699047139191244711e-08 6.864634154261142118e-09 3.759367341917814689e-09 3.101053666070156489e-09
4.759999999999999787e+00 9.780606655069809708e-08 3.766602572185929772e-08 7.057511186095155045e-09 3.874515355002211120e-09 3.134724166349672504e-09
4.799999999999999822e+00 1.011341669954253681e-07 3.835660960834928838e-08 7.253471723920215704e-09 3.985441075027943994e-09 3.143579701333852646e-09
4.839999999999999858e+00 1.044123330233052769e-07 3.910894789492323981e-08 7.423814531430296139e-09 4.080961404799461943e-09 3.144228728175266386e-09
4.879999999999999893e+00 1.075267096100827169e-07 3.994689151199509541e-08 7.559068681843199061e-09 4.161574747305995578e-09 3.162033764718822501e-09
4.919999999999999929e+00 1.105761120848147520e-07 4.087923581059327597e-08 7.679048008371821415e-09 4.239291178414883338e-09 3.211977281460961216e-09
4.959999999999999964e+00 1.137167493575474048e-07 4.188652206849716848e-08 7.818787987188356006e-09 4.329998698171743219e-09 3.286191272289099378e-09
5.000000000000000000e+00 1.170008578860973795e-07 4.289877736610373103e-08 8.001156284368339656e-09 4.442931947906003324e-09 3.359085226567489431e-09
5.040000000000000036e+00 1.203944561212546183e-07 4.381458970563632481e-08 8.218026953207423289e-09 4.573695429538756797e-09 3.406157707911128333e-09
5.080000000000000071e+00 1.238966994174424873e-07 4.458055693684768021e-08 8.435378008565085147e-09 4.705849253369928860e-09 3.421343489008295368e-09
5.120000000000000107e+00 1.275555811146109127e-07 4.526519915122592977e-08 8.619615996537665587e-09 4.821164414921473932e-09 3.420270854695057801e-09
5.160000000000000142e+00 1.313527895480389466e-07 4.603194601289041293e-08 8.764653858039258265e-09 4.912524226633404617e-09 3.428792695525748363e-09
5.200000000000000178e+00 1.351465070441210437e-07 4.700912208950873775e-08 8.896401521617228422e-09 4.990348605399417940e-09 3.465970262756770569e-09
5.240000000000000213e+00 1.388003114410530355e-07 4.817441847804408661e-08 9.050059155723454369e-09 5.076784664682447345e-09 3.532532786598078512e-09
