# R-X   VBM:  Eig [eV]   SigmaR meV   SigmaI meV    dS/domega    CBM: Eig [eV]   SigmaR meV   SigmaI meV   dS/domega
0.5 -0.4546 -25.216725 12.20836475 1.45685975 0.3915 140.9748905 12.3955875 1.70588125
0.495 -0.4559 -23.82164225 11.39030175 2.04001175 0.3927 139.75711875 12.1528485 1.90910475
0.49 -0.4595 -20.53353125 14.545352 1.1137155 0.3961 136.318302 14.50469575 1.379769
0.485 -0.4655 -19.2233485 16.1957615 1.039401 0.4017 134.8446485 17.191586 0.822776
0.48 -0.4737 -14.1709045 23.36346375 -0.266904 0.4094 129.149744 22.80177025 0.12443525
0.475 -0.4838 -16.448532 26.18725875 -0.3500605 0.4189 131.4008045 26.884539 -0.1173425
0.47 -0.4957 -16.8289025 26.6170895 -0.36344875 0.4301 132.3209805 27.46352525 -0.13662525
0.465 -0.5092 -14.729452 24.867815 0.8871655 0.4427 131.0406815 26.8263595 0.0819165
0.46 -0.524 -12.85209025 25.5691855 0.207849 0.4566 128.9147805 27.2445845 0.20313025
0.455 -0.5399 -9.68824575 25.5377835 0.0158855 0.4714 125.9593915 26.5028225 0.43427775
0.45 -0.5566 -6.55225275 24.0267725 0.6231215 0.4871 123.60914825 26.1727285 0.29959575
0.445 -0.574 -3.5859005 24.816627 0.081933 0.5033 120.05472725 26.2019905 0.51731975
0.44 -0.5918 0.2289355 25.1615575 -0.01067325 0.52 116.956484 26.38207025 0.383516
0.435 -0.6099 3.16867275 25.58356675 -0.1643525 0.537 113.919873 27.462743 -0.116095
0.43 -0.6282 6.6634135 25.599861 -0.18238375 0.5541 110.80603375 26.49188825 0.61684025
0.425 -0.6464 9.96238525 25.82609 -0.233897 0.5713 107.58989325 27.1701045 0.27692675
0.42 -0.6645 12.9086875 25.467823 0.28344175 0.5884 104.90008025 27.58165225 0.20954025
0.415 -0.6823 15.9552425 26.303759 0.05071775 0.6054 101.77774075 27.58959375 0.5595015
0.41 -0.6999 18.535419 27.042148 -0.05415225 0.6222 98.94654625 28.5174485 0.37623875
0.405 -0.717 21.1712855 26.93469275 0.2171995 0.6388 96.693653 28.876616 0.406823
0.4 -0.7337 23.54895525 27.45074975 0.27908125 0.6551 94.09339525 29.6918065 0.01502025
0.395 -0.7498 25.836664 28.02592425 0.14433175 0.6711 91.60547675 29.86945275 0.2249565
0.39 -0.7654 28.1044915 28.943281 0.45564525 0.6868 89.52451625 30.376745 0.62111425
0.385 -0.7804 29.56783725 29.544966 0.2834935 0.7021 87.7255685 31.0217525 0.62252675
0.38 -0.7947 31.595416 30.47858575 0.28214375 0.7172 85.91947275 31.7540335 0.3558265
0.375 -0.8085 33.15888 30.82939125 0.18725525 0.7319 83.72409325 32.7827525 0.2933685
0.37 -0.8216 35.088024 32.12858525 -0.02201725 0.7462 81.65466975 33.168953 0.3240305
0.365 -0.8341 36.2294715 31.923573 0.265819 0.7603 79.64894025 34.379793 -0.05944925
0.36 -0.8459 37.29945 33.803085 -0.33310875 0.774 77.9095565 34.46278675 0.33553975
0.355 -0.8572 38.85077875 34.948924 -0.419478 0.7874 76.07486675 36.24975875 -0.14469625
0.35 -0.8678 39.82592325 34.6113175 0.271068 0.8006 74.43812125 35.66627525 0.2833815
0.345 -0.8778 40.89305125 35.9307965 0.006723 0.8135 73.23005625 35.80994825 0.752086
0.34 -0.8873 41.914702 36.8355495 -0.05925525 0.8261 71.674424 37.15138525 0.26646825
0.335 -0.8962 42.891611 36.69423825 0.4925725 0.8384 69.96590925 37.46362425 0.177981
0.33 -0.9046 43.7890955 37.49182625 0.71051725 0.8505 68.74712225 39.122489 -0.25403025
0.325 -0.9125 44.38001925 38.284461 0.29430525 0.8624 66.783548 39.77500775 -0.07294275
0.32 -0.9199 45.24306025 38.76390025 0.81889775 0.874 65.48203275 40.708947 -0.2652235
0.315 -0.9268 46.370911 39.09232925 0.88522275 0.8855 64.0139085 42.259799 -0.67081725
0.31 -0.9333 46.72895525 41.2629805 -0.046475 0.8968 62.908985 41.301708 0.19303825
0.305 -0.9395 47.32590875 40.68906175 0.58942775 0.9078 62.0899915 42.5792845 -0.126559
0.3 -0.9452 48.2788855 41.41497025 0.58603125 0.9187 60.159332 43.3513685 -0.0645315
0.295 -0.9506 49.34475 42.30031 0.539976 0.9294 58.721107 43.91848575 -0.1086415
0.29 -0.9557 49.552646 42.232733 0.86576275 0.94 58.01944225 43.94563675 0.16990725
0.285 -0.9605 49.80116275 42.482924 0.67207375 0.9504 57.6490885 45.20004 -0.44450175
0.28 -0.9651 50.6538885 43.89256725 0.473804 0.9606 56.55120375 46.061003 -0.32823625
0.275 -0.9694 50.9519105 43.72297125 1.20332175 0.9707 55.17385625 46.9468145 -0.327944
0.27 -0.9734 50.982794 43.4384535 1.07874775 0.9806 54.3586935 47.11175975 -0.2142115
0.265 -0.9773 52.25851875 44.049703 0.97778025 0.9904 52.59347375 48.7918085 -0.64560225
0.26 -0.981 52.19220725 44.50236875 1.13851225 1.0 51.40718625 48.81166725 -0.132499
0.255 -0.9845 52.005106 44.25443175 1.51471725 1.0095 50.65221525 48.52392025 -0.02962725
0.25 -0.9878 52.4185025 45.87252275 0.891505 1.0189 48.55151575 49.93199525 0.130717
0.245 -0.991 53.6914525 44.9044665 1.5402485 1.028 47.96378425 48.734079 0.70946625
0.24 -0.9941 54.2048485 45.94270575 1.4560355 1.0369 46.94468225 50.14303325 0.20134125
0.235 -0.9971 53.87701525 46.3088815 1.32171025 1.0457 45.53274075 51.0861985 -0.01435225
0.23 -0.9999 54.54675975 45.588861 1.73620125 1.0544 45.58488325 51.04911675 0.49789375
0.225 -1.0028 54.84058875 45.29132925 2.0049685 1.063 44.35768375 53.88760825 0.1230365
0.22 -1.0055 54.860023 46.845403 1.63062275 1.0714 43.95485 52.33600425 0.79862925
0.215 -1.0082 55.65601475 46.40117 1.61085 1.0797 43.53875725 54.08088925 0.493726
0.21 -1.0108 56.6197015 46.94017875 1.63814 1.0878 43.50193575 53.43013025 0.80418275
0.205 -1.0134 56.2414535 47.46222925 1.84545775 1.0958 42.193669 56.2380615 -0.0872905
0.2 -1.016 56.191856 45.91681175 2.38507925 1.1037 40.578817 57.103001 -0.03631125
0.195 -1.0185 56.34215875 48.686129 1.6302575 1.1114 40.7248685 55.4009475 1.05274125
0.19 -1.021 56.353169 47.69850925 1.768459 1.119 40.25435 55.954386 1.07585325
0.185 -1.0235 56.98132575 48.10954725 1.80499025 1.1265 39.6271925 57.81810575 1.0552035
0.18 -1.026 57.74202575 48.662135 1.91354625 1.1337 38.6649735 59.67257175 0.4488655
0.175 -1.0284 57.66772375 49.764631 1.67037125 1.1409 36.087177 58.70252275 0.860921
0.17 -1.0309 58.0475255 49.48285775 2.006634 1.1479 36.043726 62.21756575 0.045359
0.165 -1.0333 58.6780885 49.84930075 1.88128075 1.1547 36.25532275 61.35015625 0.718334
0.16 -1.0357 58.44233325 49.43247475 2.17048525 1.1614 34.57411475 63.64046625 0.483508
0.155 -1.0381 58.8752 50.39442 2.05118825 1.1679 35.11304525 63.9052005 0.240365
0.15 -1.0404 59.2713515 50.97525525 2.09340925 1.1743 35.259944 65.849104 0.18454125
0.145 -1.0428 59.42554175 51.3234095 2.21119975 1.1804 34.80002275 67.818493 -0.43737975
0.14 -1.0451 60.54120625 51.32244725 2.3997005 1.1865 34.924014 67.465875 -0.63686975
0.135 -1.0474 60.99203725 51.1792795 2.46604075 1.1923 30.1874055 67.601179 0.69814725
0.13 -1.0496 61.3061625 52.54976675 2.06044875 1.198 32.16557975 71.30735775 0.0576125
0.125 -1.0518 62.2905485 54.7066945 1.5387645 1.2035 32.44940175 68.686029 0.231231
0.12 -1.054 63.32894425 54.58375475 2.0598265 1.2088 30.21097325 66.77838025 1.11977975
0.115 -1.0562 63.186294 53.86543175 2.317949 1.2139 31.3433695 70.91322575 0.09159175
0.11 -1.0583 63.72880875 54.3713855 2.59239875 1.2189 28.80735325 71.0566095 1.468773
0.105 -1.0603 64.03217475 55.986378 2.30022075 1.2236 28.22750075 74.3202735 -0.763623
0.1 -1.0623 65.57731575 57.29724725 2.073168 1.2282 29.2995295 70.36479225 1.55161425
0.095 -1.0642 65.56428175 56.454546 2.5842405 1.2325 26.66871075 70.15525875 1.279246
0.09 -1.0661 67.66871225 58.141339 2.15546525 1.2367 25.47583625 73.048116 0.92337475
0.085 -1.0679 67.29338975 58.311362 2.163708 1.2406 25.3226055 73.64076775 1.28967025
0.08 -1.0696 67.25706075 59.179392 1.85557375 1.2444 22.97787775 73.247379 1.86363775
0.075 -1.0712 67.05706275 58.2783535 2.304264 1.2479 23.373939 76.744372 1.5307595
0.07 -1.0728 67.430725 57.28696175 2.82553825 1.2512 26.6597775 83.1606215 -0.28010675
0.065 -1.0743 68.4876895 58.87030975 2.115601 1.2543 22.4086655 76.1922905 2.8699185
0.06 -1.0756 69.5058045 59.22444125 2.21458775 1.2572 21.467234 85.35429425 -0.3335845
0.055 -1.0769 69.18776125 58.52272725 2.81608525 1.2599 19.30653875 83.932295 1.06392675
0.05 -1.0781 69.4337165 59.59310325 2.7367115 1.2623 17.126057 79.07832925 3.2669565
0.045 -1.0792 69.381164 60.90010225 2.13011675 1.2646 20.1188725 82.86864125 1.49575375
0.04 -1.0802 68.82305525 60.86555575 2.15135475 1.2666 23.08107675 80.18295525 2.8553645
0.035 -1.081 68.6611225 58.00814675 3.4877745 1.2683 20.3571755 83.63121225 2.84393825
0.03 -1.0818 68.4016675 58.5848765 3.23357775 1.2699 20.0881105 86.1553 1.30722725
0.025 -1.0825 67.04973275 61.13626425 2.414102 1.2712 17.200474 87.212069 2.2044625
0.02 -1.083 67.52633525 59.116595 3.3698535 1.2722 18.4361795 92.61841925 0.41591225
0.015 -1.0834 67.2113135 58.35299375 3.375603 1.2731 20.2758205 82.3794885 3.7794595
0.01 -1.0837 66.9886305 57.798373 3.89507025 1.2737 19.14532725 89.1054255 1.08053
0.005 -1.0839 67.3996405 56.72190525 4.23446625 1.2741 19.0695425 84.196986 3.41951075
-4.4408920985e-16 -1.0839 67.47391125 56.2317895 4.26288775 1.2742 21.25894775 84.032589 3.24842875
